sample,adc,filtered,lead_off
0,6330,-0.00,0
1,5343,-2.17,0
2,4816,-17.78,0
3,5051,-70.45,0
4,5958,-181.55,0
5,7072,-343.94,0
6,7792,-508.52,0
7,7728,-599.83,0
8,6924,-554.62,0
9,5821,-360.90,0
10,5019,-73.33,0
11,4930,206.64,0
12,5605,376.79,0
13,6677,382.70,0
14,7563,243.40,0
15,7802,40.60,0
16,7221,-122.85,0
17,6195,-173.77,0
18,5253,-102.49,0
19,4897,37.28,0
20,5315,160.84,0
21,6287,198.91,0
22,7253,133.26,0
23,7696,3.36,0
24,7364,-118.12,0
25,6437,-166.57,0
26,5424,-120.57,0
27,4869,-12.10,0
28,5079,92.89,0
29,5965,131.83,0
30,7063,80.44,0
31,7767,-33.86,0
32,7710,-147.02,0
33,6942,-193.46,0
34,5914,-141.77,0
35,5164,-11.31,0
36,5124,138.80,0
37,5831,241.49,0
38,6905,257.05,0
39,7727,192.96,0
40,7838,97.69,0
41,7152,32.23,0
42,6031,35.35,0
43,5057,102.18,0
44,4764,187.54,0
45,5253,231.79,0
46,6306,194.59,0
47,7317,77.88,0
48,7724,-74.08,0
49,7311,-197.61,0
50,6274,-243.13,0
51,5162,-201.12,0
52,4567,-106.75,0
53,4754,-21.03,0
54,5594,0.94,0
55,6658,-62.40,0
56,7309,-189.46,0
57,7187,-328.28,0
58,6358,-424.37,0
59,5271,-448.73,0
60,4537,-411.04,0
61,4541,-351.35,0
62,5280,-316.06,0
63,6389,-331.76,0
64,7230,-391.36,0
65,7351,-459.39,0
66,6708,-493.25,0
67,5622,-468.01,0
68,4704,-391.00,0
69,4427,-298.23,0
70,4932,-235.16,0
71,5981,-232.42,0
72,6978,-289.65,0
73,7355,-375.84,0
74,6869,-446.23,0
75,5787,-467.01,0
76,4685,-433.95,0
77,4125,-374.49,0
78,4378,-332.33,0
79,5306,-343.40,0
80,6434,-416.49,0
81,7105,-528.02,0
82,6963,-633.91,0
83,6114,-692.11,0
84,5022,-683.81,0
85,4343,-621.71,0
86,4439,-541.10,0
87,5290,-479.44,0
88,6529,-455.81,0
89,7438,-461.36,0
90,7593,-465.39,0
91,6917,-433.89,0
92,5800,-349.95,0
93,4839,-224.64,0
94,4546,-92.74,0
95,5031,4.09,0
96,6031,37.35,0
97,6934,4.43,0
98,7254,-72.14,0
99,6781,-157.72,0
100,5772,-223.33,0
101,4777,-258.49,0
102,4328,-272.75,0
103,4652,-286.22,0
104,5601,-315.16,0
105,6696,-361.18,0
106,7333,-409.26,0
107,7145,-435.72,0
108,6273,-421.88,0
109,5188,-365.98,0
110,4502,-285.84,0
111,4571,-210.73,0
112,5335,-166.78,0
113,6436,-164.36,0
114,7195,-193.85,0
115,7216,-231.88,0
116,6477,-254.79,0
117,5362,-251.60,0
118,4504,-229.37,0
119,4322,-207.98,0
120,4924,-207.84,0
121,6010,-237.66,0
122,6961,-288.95,0
123,7259,-340.09,0
124,6740,-367.83,0
125,5676,-360.14,0
126,4653,-323.01,0
127,4232,-277.50,0
128,4614,-248.36,0
129,5625,-250.88,0
130,6735,-282.77,0
131,7354,-325.30,0
132,7129,-352.85,0
133,6224,-346.07,0
134,5121,-301.96,0
135,4426,-235.27,0
136,4504,-170.85,0
137,5287,-131.17,0
138,6405,-125.87,0
139,7195,-148.17,0
140,7231,-179.56,0
141,6484,-200.41,0
142,5356,-200.54,0
143,4488,-184.11,0
144,4339,-165.92,0
145,4964,-161.67,0
146,6078,-178.09,0
147,7069,-208.66,0
148,7400,-236.68,0
149,6881,-244.20,0
150,5815,-222.08,0
151,4778,-175.59,0
152,4308,-122.35,0
153,4651,-83.60,0
154,5597,-74.04,0
155,6652,-95.30,0
156,7179,-136.14,0
157,6901,-179.08,0
158,5961,-209.78,0
159,4854,-224.09,0
160,4205,-228.80,0
161,4334,-236.01,0
162,5177,-254.83,0
163,6315,-285.29,0
164,7107,-317.63,0
165,7132,-337.32,0
166,6395,-332.97,0
167,5303,-302.96,0
168,4483,-256.75,0
169,4342,-210.03,0
170,4942,-176.91,0
171,5989,-163.55,0
172,6876,-166.68,0
173,7102,-176.86,0
174,6544,-184.74,0
175,5495,-186.72,0
176,4546,-186.60,0
177,4221,-192.28,0
178,4673,-209.31,0
179,5690,-235.92,0
180,6740,-262.39,0
181,7224,-275.42,0
182,6858,-265.14,0
183,5839,-231.39,0
184,4709,-185.78,0
185,4077,-147.43,0
186,4266,-134.17,0
187,5145,-153.78,0
188,6314,-200.05,0
189,7087,-255.35,0
190,7052,-298.46,0
191,6243,-314.09,0
192,5101,-299.63,0
193,4278,-265.50,0
194,4175,-228.85,0
195,4809,-204.62,0
196,5881,-199.13,0
197,6774,-209.06,0
198,6992,-225.18,0
199,6395,-238.46,0
200,5298,-245.30,0
201,4356,-249.14,0
202,4021,-257.22,0
203,4485,-274.69,0
204,5522,-300.18,0
205,6599,-325.45,0
206,7069,-339.08,0
207,6708,-332.35,0
208,5704,-304.72,0
209,4612,-265.27,0
210,4023,-228.99,0
211,4228,-209.40,0
212,5106,-212.04,0
213,6234,-232.26,0
214,6938,-258.14,0
215,6872,-276.51,0
216,6075,-279.39,0
217,4989,-267.26,0
218,4247,-247.53,0
219,4227,-229.14,0
220,4928,-216.89,0
221,6040,-208.95,0
222,6911,-198.69,0
223,7071,-179.33,0
224,6417,-148.94,0
225,5291,-113.12,0
226,4346,-83.42,0
227,4032,-71.78,0
228,4510,-84.01,0
229,5556,-116.39,0
230,6620,-157.07,0
231,7084,-191.08,0
232,6710,-206.62,0
233,5721,-200.13,0
234,4666,-177.45,0
235,4098,-150.16,0
236,4317,-129.32,0
237,5205,-120.31,0
238,6329,-121.35,0
239,7040,-125.46,0
240,6979,-124.64,0
241,6183,-114.13,0
242,5087,-94.63,0
243,4313,-71.53,0
244,4248,-51.49,0
245,4901,-38.78,0
246,5971,-33.63,0
247,6838,-33.17,0
248,7020,-33.65,0
249,6418,-32.90,0
250,5346,-31.78,0
251,4445,-33.62,0
252,4170,-41.50,0
253,4681,-55.06,0
254,5706,-69.27,0
255,6703,-76.47,0
256,7099,-70.35,0
257,6642,-49.94,0
258,5580,-21.65,0
259,4500,2.22,0
260,3983,8.64,0
261,4233,-9.50,0
262,5178,-49.36,0
263,6307,-99.18,0
264,6996,-143.25,0
265,6874,-168.35,0
266,6002,-169.09,0
267,4870,-149.83,0
268,4104,-122.02,0
269,4115,-98.21,0
270,4879,-85.87,0
271,6055,-84.35,0
272,6974,-86.13,0
273,7164,-81.28,0
274,6529,-62.79,0
275,5464,-30.22,0
276,4581,10.55,0
277,4367,51.41,0
278,4913,87.24,0
279,5976,118.41,0
280,6947,149.29,0
281,7296,184.07,0
282,6807,222.40,0
283,5754,257.69,0
284,4706,279.19,0
285,4244,277.61,0
286,4587,251.02,0
287,5586,207.59,0
288,6717,163.06,0
289,7360,134.38,0
290,7165,132.49,0
291,6270,157.64,0
292,5176,199.57,0
293,4476,242.88,0
294,4539,274.71,0
295,5319,290.35,0
296,6418,293.81,0
297,7193,293.69,0
298,7206,297.04,0
299,6425,304.40,0
300,5252,308.66,0
301,4327,298.66,0
302,4109,265.81,0
303,4688,209.80,0
304,5774,140.07,0
305,6755,72.03,0
306,7075,20.37,0
307,6598,-7.33,0
308,5585,-13.30,0
309,4617,-7.04,0
310,4219,1.02,0
311,4593,5.76,0
312,5549,9.61,0
313,6592,19.66,0
314,7131,41.86,0
315,6840,75.97,0
316,5870,113.75,0
317,4756,141.49,0
318,4062,146.12,0
319,4147,121.82,0
320,4948,73.35,0
321,6094,14.19,0
322,6932,-39.00,0
323,7020,-72.74,0
324,6322,-81.22,0
325,5228,-67.54,0
326,4381,-41.01,0
327,4212,-11.84,0
328,4834,13.93,0
329,5940,36.32,0
330,6864,59.58,0
331,7098,87.56,0
332,6472,118.90,0
333,5283,144.87,0
334,4186,151.72,0
335,3697,126.99,0
336,4049,66.44,0
337,5071,-22.62,0
338,6268,-123.09,0
339,7023,-213.40,0
340,7019,-273.38,0
341,6425,-288.59,0
342,5796,-251.08,0
343,5653,-156.42,0
344,6325,0.76,0
345,7717,228.60,0
346,9379,535.63,0
347,10714,925.57,0
348,11008,1392.11,0
349,10932,1916.18,0
350,10418,2469.38,0
351,9626,3022.72,0
352,8997,3550.60,0
353,8770,4024.57,0
354,8707,4404.17,0
355,8412,4634.97,0
356,7606,4656.94,0
357,6239,4420.60,0
358,4628,3905.27,0
359,3373,3132.62,0
360,2890,2170.01,0
361,3316,1121.43,0
362,4413,107.65,0
363,5659,-758.79,0
364,6404,-1395.77,0
365,6294,-1765.07,0
366,5489,-1875.14,0
367,4563,-1773.54,0
368,4089,-1530.79,0
369,4365,-1220.57,0
370,5294,-903.17,0
371,6443,-617.41,0
372,7135,-381.57,0
373,7055,-200.29,0
374,6100,-73.09,0
375,4857,-0.27,0
376,3923,16.17,0
377,3718,-23.68,0
378,4301,-112.83,0
379,5344,-235.74,0
380,6260,-371.28,0
381,6495,-498.34,0
382,5926,-601.64,0
383,4881,-675.25,0
384,3975,-721.95,0
385,3695,-748.48,0
386,4190,-759.52,0
387,5257,-754.69,0
388,6359,-729.84,0
389,6867,-681.22,0
390,6535,-610.01,0
391,5576,-524.80,0
392,4565,-440.05,0
393,4035,-370.37,0
394,4288,-323.67,0
395,5179,-297.56,0
396,6268,-281.53,0
397,6929,-263.20,0
398,6789,-235.28,0
399,5923,-199.75,0
400,4761,-167.24,0
401,3969,-151.56,0
402,3927,-162.27,0
403,4646,-198.88,0
404,5790,-250.31,0
405,6743,-299.43,0
406,6984,-330.05,0
407,6409,-333.09,0
408,5333,-309.59,0
409,4402,-269.16,0
410,4080,-224.56,0
411,4546,-185.57,0
412,5583,-155.46,0
413,6635,-131.63,0
414,7109,-108.94,0
415,6740,-83.84,0
416,5750,-57.36,0
417,4695,-35.01,0
418,4151,-23.39,0
419,4413,-25.29,0
420,5333,-36.82,0
421,6480,-48.46,0
422,7183,-49.43,0
423,7078,-32.94,0
424,6241,0.10,0
425,5125,41.05,0
426,4370,77.64,0
427,4349,100.21,0
428,5068,106.45,0
429,6209,101.94,0
430,7105,96.60,0
431,7282,99.48,0
432,6626,114.16,0
433,5470,136.71,0
434,4453,157.33,0
435,4093,164.93,0
436,4548,152.61,0
437,5590,120.83,0
438,6657,76.97,0
439,7144,32.03,0
440,6777,-3.97,0
441,5793,-25.81,0
442,4750,-34.41,0
443,4269,-34.33,0
444,4585,-29.23,0
445,5568,-18.30,0
446,6711,3.46,0
447,7358,41.40,0
448,7182,96.24,0
449,6267,160.74,0
450,5084,220.71,0
451,4291,260.14,0
452,4283,268.13,0
453,5031,243.99,0
454,6163,197.57,0
455,7037,144.72,0
456,7183,100.44,0
457,6547,73.23,0
458,5487,63.09,0
459,4612,64.17,0
460,4399,70.07,0
461,4955,78.54,0
462,6034,92.48,0
463,7032,117.10,0
464,7418,155.28,0
465,6976,204.06,0
466,5961,254.19,0
467,4938,293.49,0
468,4467,312.58,0
469,4785,309.93,0
470,5728,292.98,0
471,6820,274.57,0
472,7457,266.68,0
473,7304,275.07,0
474,6449,297.21,0
475,5364,324.33,0
476,4648,346.36,0
477,4661,357.10,0
478,5374,356.83,0
479,6431,350.79,0
480,7214,344.96,0
481,7294,341.96,0
482,6611,339.28,0
483,5558,330.73,0
484,4710,310.58,0
485,4516,278.15,0
486,5068,239.90,0
487,6113,207.23,0
488,7063,191.11,0
489,7380,196.60,0
490,6893,219.95,0
491,5852,249.47,0
492,4813,270.33,0
493,4334,271.04,0
494,4635,248.51,0
495,5543,209.01,0
496,6531,164.30,0
497,7141,125.31,0
498,6887,97.16,0
499,5941,77.60,0
500,4813,58.75,0
501,4111,31.55,0
502,4184,-8.70,0
503,4966,-58.94,0
504,6078,-109.47,0
505,6892,-148.76,0
506,6950,-169.10,0
507,6228,-170.19,0
508,5111,-159.25,0
509,4241,-147.40,0
510,4046,-143.86,0
511,4608,-151.40,0
512,5659,-165.76,0
513,6620,-179.12,0
514,6920,-185.05,0
515,6397,-182.35,0
516,5311,-176.18,0
517,4290,-175.76,0
518,3844,-189.24,0
519,4203,-218.54,0
520,5177,-257.57,0
521,6293,-294.90,0
522,6913,-318.89,0
523,6680,-322.69,0
524,5740,-307.10,0
525,4614,-280.34,0
526,3917,-254.29,0
527,3992,-238.67,0
528,4801,-236.73,0
529,5952,-244.67,0
530,6817,-254.42,0
531,6932,-257.71,0
532,6270,-249.52,0
533,5211,-229.60,0
534,4383,-201.30,0
535,4233,-168.55,0
536,4812,-133.05,0
537,5869,-94.04,0
538,6808,-50.46,0
539,7071,-3.77,0
540,6531,40.42,0
541,5479,73.02,0
542,4514,84.87,0
543,4116,71.85,0
544,4473,38.33,0
545,5398,-3.91,0
546,6404,-41.07,0
547,6858,-63.84,0
548,6489,-71.77,0
549,5471,-73.80,0
550,4361,-84.42,0
551,3745,-116.39,0
552,3948,-173.38,0
553,4877,-246.61,0
554,6113,-317.43,0
555,6984,-364.49,0
556,7035,-371.85,0
557,6257,-335.10,0
558,5082,-263.28,0
559,4167,-175.50,0
560,3942,-93.64,0
561,4494,-34.82,0
562,5550,-7.20,0
563,6493,-10.06,0
564,6787,-36.68,0
565,6289,-78.17,0
566,5287,-126.45,0
567,4382,-174.95,0
568,4050,-217.10,0
569,4487,-244.88,0
570,5479,-249.74,0
571,6503,-226.04,0
572,6979,-174.98,0
573,6642,-106.32,0
574,5679,-36.70,0
575,4621,15.57,0
576,4036,37.63,0
577,4235,27.50,0
578,5093,-4.91,0
579,6193,-42.53,0
580,6943,-68.74,0
581,6938,-73.98,0
582,6200,-58.43,0
583,5156,-29.97,0
584,4401,1.09,0
585,4325,27.86,0
586,4954,49.95,0
587,5988,71.89,0
588,6825,98.29,0
589,6969,129.20,0
590,6297,157.87,0
591,5127,172.14,0
592,4078,158.94,0
593,3648,110.24,0
594,4018,27.49,0
595,5001,-78.11,0
596,6082,-189.45,0
597,6624,-289.05,0
598,6366,-364.01,0
599,5469,-408.84,0
600,4488,-425.20,0
601,3997,-418.42,0
602,4280,-392.83,0
603,5208,-349.04,0
604,6351,-285.13,0
605,7085,-200.55,0
606,7030,-99.89,0
607,6188,5.79,0
608,4987,100.74,0
609,4101,168.80,0
610,3930,198.66,0
611,4532,187.70,0
612,5556,142.36,0
613,6435,74.80,0
614,6630,-1.87,0
615,6037,-77.72,0
616,4970,-147.79,0
617,4066,-210.94,0
618,3794,-266.34,0
619,4329,-310.07,0
620,5397,-334.52,0
621,6501,-331.46,0
622,7007,-296.54,0
623,6671,-232.71,0
624,5685,-150.86,0
625,4613,-67.12,0
626,4021,2.59,0
627,4196,48.27,0
628,5022,68.53,0
629,6096,68.95,0
630,6790,57.75,0
631,6699,41.70,0
632,5885,23.71,0
633,4799,2.97,0
634,4045,-22.48,0
635,3995,-52.11,0
636,4655,-81.17,0
637,5718,-102.37,0
638,6614,-109.84,0
639,6742,-102.45,0
640,6093,-85.16,0
641,4970,-68.10,0
642,4030,-62.85,0
643,3747,-76.96,0
644,4284,-109.53,0
645,5367,-150.67,0
646,6432,-185.52,0
647,6860,-200.78,0
648,6427,-190.76,0
649,5377,-160.38,0
650,4325,-123.08,0
651,3835,-94.04,0
652,4156,-82.09,0
653,5122,-85.28,0
654,6260,-92.68,0
655,6921,-91.07,0
656,6755,-72.24,0
657,5878,-37.52,0
658,4740,2.87,0
659,3967,35.19,0
660,3932,49.19,0
661,4636,42.65,0
662,5745,21.23,0
663,6622,-5.32,0
664,6778,-28.06,0
665,6124,-42.58,0
666,5018,-50.25,0
667,4076,-56.38,0
668,3760,-66.27,0
669,4235,-81.74,0
670,5252,-100.34,0
671,6286,-117.31,0
672,6741,-128.38,0
673,6372,-131.85,0
674,5403,-129.28,0
675,4426,-124.29,0
676,3963,-119.65,0
677,4287,-114.21,0
678,5231,-102.39,0
679,6331,-77.07,0
680,6952,-34.14,0
681,6769,23.82,0
682,5889,86.83,0
683,4779,140.59,0
684,4060,172.33,0
685,4113,176.73,0
686,4887,158.60,0
687,6027,130.80,0
688,6888,108.38,0
689,6985,102.18,0
690,6270,114.41,0
691,5130,138.08,0
692,4180,160.67,0
693,3871,170.35,0
694,4349,161.25,0
695,5359,134.83,0
696,6368,97.58,0
697,6800,57.43,0
698,6436,20.80,0
699,5513,-8.62,0
700,4585,-29.11,0
701,4164,-38.74,0
702,4494,-33.61,0
703,5397,-8.71,0
704,6408,38.70,0
705,6926,105.04,0
706,6636,178.65,0
707,5696,241.55,0
708,4623,274.94,0
709,3997,266.95,0
710,4125,219.00,0
711,4937,146.81,0
712,6058,74.43,0
713,6851,24.60,0
714,6901,9.97,0
715,6182,29.19,0
716,5077,68.88,0
717,4206,110.50,0
718,3981,138.75,0
719,4522,147.22,0
720,5557,138.85,0
721,6525,121.96,0
722,6856,104.97,0
723,6383,92.34,0
724,5373,83.09,0
725,4433,72.90,0
726,4071,58.64,0
727,4482,42.75,0
728,5499,33.87,0
729,6606,43.09,0
730,7211,78.11,0
731,6987,138.71,0
732,6061,215.47,0
733,5000,292.67,0
734,4375,354.54,0
735,4484,392.18,0
736,5260,406.94,0
737,6341,408.04,0
738,7083,406.43,0
739,7085,408.85,0
740,6340,414.75,0
741,5241,417.46,0
742,4414,408.80,0
743,4284,384.83,0
744,4924,349.49,0
745,6035,313.75,0
746,7016,290.82,0
747,7316,290.17,0
748,6763,312.99,0
749,5643,350.92,0
750,4555,388.84,0
751,4051,410.81,0
752,4376,406.39,0
753,5332,374.40,0
754,6431,322.30,0
755,7012,262.45,0
756,6761,206.90,0
757,5800,162.86,0
758,4660,130.75,0
759,3964,105.87,0
760,4053,82.61,0
761,4862,58.47,0
762,6000,35.27,0
763,6803,17.36,0
764,6854,8.58,0
765,6119,9.52,0
766,5009,16.68,0
767,4172,24.26,0
768,4040,27.67,0
769,4687,26.79,0
770,5811,26.39,0
771,6762,33.39,0
772,7017,52.59,0
773,6430,82.93,0
774,5312,116.28,0
775,4312,140.38,0
776,3919,144.79,0
777,4334,126.72,0
778,5325,92.75,0
779,6391,55.42,0
780,6891,26.99,0
781,6551,13.71,0
782,5542,13.03,0
783,4435,15.22,0
784,3794,8.87,0
785,3929,-12.62,0
786,4767,-47.56,0
787,5896,-87.44,0
788,6675,-121.58,0
789,6727,-141.94,0
790,6098,-145.80,0
791,5286,-134.42,0
792,4918,-107.97,0
793,5374,-59.06,0
794,6629,30.48,0
795,8291,186.31,0
796,9775,432.43,0
797,10584,781.33,0
798,10585,1228.32,0
799,10100,1752.65,0
800,9608,2324.22,0
801,9384,2911.49,0
802,9487,3484.67,0
803,9783,4011.52,0
804,9827,4450.17,0
805,9132,4746.42,0
806,7633,4839.53,0
807,5654,4675.66,0
808,3859,4225.10,0
809,2836,3497.81,0
810,2829,2550.67,0
811,3711,1481.75,0
812,4981,412.09,0
813,5968,-538.85,0
814,6160,-1276.52,0
815,5564,-1747.46,0
816,4650,-1945.23,0
817,4018,-1904.90,0
818,4097,-1688.45,0
819,4907,-1367.01,0
820,6124,-1005.86,0
821,7092,-655.71,0
822,7316,-350.21,0
823,6677,-108.25,0
824,5481,61.80,0
825,4404,158.50,0
826,3937,185.97,0
827,4283,153.90,0
828,5165,76.93,0
829,6190,-27.82,0
830,6639,-143.74,0
831,6285,-257.25,0
832,5344,-359.26,0
833,4421,-445.02,0
834,3973,-511.30,0
835,4295,-553.07,0
836,5245,-563.09,0
837,6367,-535.12,0
838,7006,-468.67,0
839,6823,-372.48,0
840,5886,-264.82,0
841,4697,-169.73,0
842,3895,-109.78,0
843,3862,-98.02,0
844,4589,-133.13,0
845,5737,-200.38,0
846,6651,-277.77,0
847,6820,-344.15,0
848,6182,-386.18,0
849,5061,-401.60,0
850,4160,-397.48,0
851,3935,-384.31,0
852,4510,-369.11,0
853,5613,-351.97,0
854,6686,-327.68,0
855,7143,-290.44,0
856,6744,-238.74,0
857,5727,-177.66,0
858,4663,-117.67,0
859,4140,-69.95,0
860,4427,-41.04,0
861,5368,-29.68,0
862,6493,-28.04,0
863,7173,-26.10,0
864,7035,-16.74,0
865,6175,1.04,0
866,5048,22.16,0
867,4345,38.87,0
868,4385,45.97,0
869,5150,44.56,0
870,6275,41.56,0
871,7131,45.56,0
872,7250,61.68,0
873,6569,88.49,0
874,5455,118.16,0
875,4519,140.11,0
876,4251,146.29,0
877,4788,135.23,0
878,5863,112.69,0
879,6873,88.62,0
880,7306,72.44,0
881,6921,68.99,0
882,5971,77.25,0
883,4943,92.25,0
884,4423,108.64,0
885,4669,123.55,0
886,5537,137.15,0
887,6579,150.87,0
888,7178,164.80,0
889,6983,176.05,0
890,6083,178.83,0
891,4981,166.54,0
892,4298,135.25,0
893,4378,87.44,0
894,5174,33.14,0
895,6331,-12.92,0
896,7183,-37.04,0
897,7272,-32.16,0
898,6558,-1.02,0
899,5441,44.55,0
900,4547,88.52,0
901,4336,117.66,0
902,4901,127.07,0
903,5986,121.16,0
904,6974,109.93,0
905,7331,103.17,0
906,6855,105.53,0
907,5821,114.62,0
908,4817,123.13,0
909,4405,124.07,0
910,4795,116.01,0
911,5823,105.06,0
912,6950,102.21,0
913,7574,117.62,0
914,7346,155.04,0
915,6422,209.08,0
916,5280,266.75,0
917,4549,312.90,0
918,4602,336.67,0
919,5374,335.71,0
920,6497,316.03,0
921,7300,288.01,0
922,7350,261.19,0
923,6617,240.03,0
924,5499,222.94,0
925,4604,204.71,0
926,4436,181.15,0
927,5055,152.98,0
928,6170,126.49,0
929,7163,110.58,0
930,7510,111.98,0
931,7039,131.38,0
932,5999,162.55,0
933,4972,195.11,0
934,4541,219.39,0
935,4935,231.05,0
936,5973,233.06,0
937,7077,233.94,0
938,7668,242.95,0
939,7401,264.83,0
940,6426,296.62,0
941,5261,328.48,0
942,4531,348.13,0
943,4593,346.74,0
944,5382,323.04,0
945,6480,283.22,0
946,7220,237.17,0
947,7192,193.14,0
948,6367,153.69,0
949,5189,114.90,0
950,4313,69.68,0
951,4176,13.36,0
952,4809,-51.67,0
953,5930,-115.76,0
954,6909,-166.30,0
955,7198,-193.73,0
956,6646,-196.17,0
957,5551,-180.61,0
958,4511,-159.88,0
959,4036,-146.82,0
960,4355,-148.98,0
961,5261,-166.77,0
962,6289,-195.71,0
963,6801,-230.39,0
964,6518,-267.60,0
965,5598,-307.45,0
966,4570,-351.73,0
967,3996,-400.27,0
968,4195,-447.75,0
969,5066,-483.59,0
970,6183,-495.87,0
971,6904,-477.30,0
972,6835,-429.92,0
973,5989,-366.22,0
974,4801,-305.75,0
975,3949,-268.23,0
976,3839,-265.70,0
977,4529,-297.42,0
978,5696,-350.39,0
979,6707,-404.93,0
980,7012,-442.48,0
981,6467,-452.24,0
982,5369,-434.33,0
983,4353,-398.20,0
984,3911,-357.26,0
985,4276,-322.82,0
986,5209,-300.72,0
987,6231,-291.75,0
988,6730,-294.40,0
989,6431,-307.46,0
990,5523,-330.95,0
991,4545,-364.74,0
992,4046,-405.39,0
993,4317,-443.66,0
994,5245,-465.43,0
995,6399,-456.53,0
996,7136,-409.18,0
997,7049,-326.48,0
998,6168,-223.21,0
999,4953,-122.19,0
1000,4118,-47.15,0
1001,3937,-14.28,0
1002,4560,-26.93,0
1003,5615,-76.17,0
1004,6511,-146.22,0
1005,6711,-221.15,0
1006,6105,-290.19,0
1007,5026,-349.73,0
1008,4115,-401.37,0
1009,3832,-446.95,0
1010,4334,-484.09,0
1011,5415,-505.57,0
1012,6525,-502.80,0
1013,7052,-470.76,0
1014,6704,-411.59,0
1015,5704,-335.58,0
1016,4597,-258.57,0
1017,3991,-196.49,0
1018,4193,-159.19,0
1019,5073,-147.11,0
1020,6221,-152.46,0
1021,6949,-163.87,0
1022,6875,-171.83,0
1023,6053,-172.55,0
1024,4931,-168.63,0
1025,4161,-165.92,0
1026,4122,-168.58,0
1027,4822,-175.45,0
1028,5936,-180.49,0
1029,6837,-176.63,0
1030,7027,-160.29,0
1031,6416,-133.96,0
1032,5331,-105.70,0
1033,4402,-85.31,0
1034,4090,-79.13,0
1035,4542,-86.52,0
1036,5559,-100.41,0
1037,6595,-111.49,0
1038,7077,-113.02,0
1039,6759,-103.59,0
1040,5830,-86.99,0
1041,4811,-69.48,0
1042,4274,-55.77,0
1043,4495,-46.09,0
1044,5353,-36.22,0
1045,6425,-20.58,0
1046,7067,3.61,0
1047,6913,33.59,0
1048,6018,60.84,0
1049,4863,73.75,0
1050,4096,62.51,0
1051,4069,24.41,0
1052,4765,-33.67,0
1053,5836,-97.74,0
1054,6649,-153.09,0
1055,6715,-190.96,0
1056,5997,-212.42,0
1057,4839,-227.53,0
1058,3907,-249.99,0
1059,3655,-289.45,0
1060,4205,-345.70,0
1061,5276,-408.18,0
1062,6305,-461.11,0
1063,6712,-491.17,0
1064,6302,-493.55,0
1065,5285,-473.74,0
1066,4274,-444.28,0
1067,3796,-417.99,0
1068,4116,-401.38,0
1069,5083,-392.02,0
1070,6252,-381.04,0
1071,6950,-358.63,0
1072,6833,-319.42,0
1073,5998,-265.41,0
1074,4912,-205.18,0
1075,4190,-149.51,0
1076,4184,-106.03,0
1077,4865,-76.11,0
1078,5929,-56.15,0
1079,6736,-41.59,0
1080,6835,-30.56,0
1081,6173,-25.35,0
1082,5095,-31.07,0
1083,4239,-51.91,0
1084,4036,-86.93,0
1085,4589,-128.05,0
1086,5640,-162.20,0
1087,6595,-177.03,0
1088,6902,-167.00,0
1089,6381,-136.84,0
1090,5277,-100.81,0
1091,4219,-77.38,0
1092,3721,-81.33,0
1093,4060,-116.85,0
1094,5052,-175.43,0
1095,6236,-239.48,0
1096,6928,-289.38,0
1097,6793,-310.71,0
1098,5942,-299.04,0
1099,4851,-260.32,0
1100,4148,-206.80,0
1101,4199,-150.81,0
1102,4966,-99.88,0
1103,6074,-55.71,0
1104,6867,-16.72,0
1105,6882,17.82,0
1106,6109,44.70,0
1107,4939,56.41,0
1108,4042,44.58,0
1109,3867,5.67,0
1110,4482,-54.66,0
1111,5614,-121.77,0
1112,6653,-177.18,0
1113,7036,-205.71,0
1114,6545,-201.33,0
1115,5458,-169.25,0
1116,4409,-123.58,0
1117,3920,-80.92,0
1118,4232,-53.14,0
1119,5151,-43.61,0
1120,6200,-48.38,0
1121,6766,-60.84,0
1122,6524,-76.38,0
1123,5587,-94.81,0
1124,4512,-119.51,0
1125,3882,-153.55,0
1126,4033,-195.04,0
1127,4906,-235.11,0
1128,6083,-260.42,0
1129,6888,-258.93,0
1130,6916,-225.98,0
1131,6162,-167.61,0
1132,5076,-98.99,0
1133,4285,-37.93,0
1134,4184,3.56,0
1135,4868,24.72,0
1136,6023,35.48,0
1137,7001,50.47,0
1138,7257,81.09,0
1139,6657,129.15,0
1140,5481,184.97,0
1141,4354,231.08,0
1142,3803,249.72,0
1143,4094,230.31,0
1144,5037,173.27,0
1145,6111,88.82,0
1146,6698,-7.54,0
1147,6491,-100.66,0
1148,5614,-179.82,0
1149,4605,-239.81,0
1150,4023,-278.87,0
1151,4181,-295.43,0
1152,5032,-286.74,0
1153,6179,-250.56,0
1154,6949,-188.23,0
1155,6923,-107.12,0
1156,6100,-20.96,0
1157,4900,52.49,0
1158,4010,96.44,0
1159,3865,101.31,0
1160,4522,69.07,0
1161,5670,12.97,0
1162,6675,-47.58,0
1163,7010,-94.21,0
1164,6499,-115.85,0
1165,5469,-111.35,0
1166,4517,-87.58,0
1167,4166,-53.97,0
1168,4621,-16.83,0
1169,5667,23.12,0
1170,6773,69.12,0
1171,7331,124.17,0
1172,7056,187.22,0
1173,6126,251.78,0
1174,5051,307.99,0
1175,4423,347.21,0
1176,4551,366.50,0
1177,5386,369.90,0
1178,6538,366.09,0
1179,7296,364.11,0
1180,7279,369.39,0
1181,6491,381.39,0
1182,5358,394.09,0
1183,4539,399.56,0
1184,4433,392.95,0
1185,5108,375.95,0
1186,6232,356.33,0
1187,7146,343.85,0
1188,7347,344.92,0
1189,6749,358.56,0
1190,5682,376.26,0
1191,4714,386.41,0
1192,4377,380.93,0
1193,4797,359.92,0
1194,5781,331.43,0
1195,6742,306.48,0
1196,7157,292.35,0
1197,6737,288.04,0
1198,5712,284.16,0
1199,4607,267.41,0
1200,3993,227.64,0
1201,4163,163.67,0
1202,5004,84.48,0
1203,6083,5.09,0
1204,6772,-60.33,0
1205,6677,-104.37,0
1206,5850,-128.87,0
1207,4755,-142.93,0
1208,4018,-157.29,0
1209,4011,-177.66,0
1210,4736,-201.07,0
1211,5849,-217.63,0
1212,6773,-216.56,0
1213,6975,-192.47,0
1214,6368,-148.71,0
1215,5287,-96.50,0
1216,4360,-50.18,0
1217,4036,-20.63,0
1218,4521,-10.33,0
1219,5574,-13.07,0
1220,6613,-17.86,0
1221,7055,-14.87,0
1222,6619,-0.52,0
1223,5538,20.16,0
1224,4390,35.41,0
1225,3765,32.41,0
1226,3937,3.86,0
1227,4808,-48.30,0
1228,5925,-114.10,0
1229,6654,-180.24,0
1230,6619,-235.29,0
1231,5940,-272.95,0
1232,5099,-291.41,0
1233,4735,-288.81,0
1234,5217,-257.36,0
1235,6545,-180.16,0
1236,8291,-33.75,0
1237,9796,204.70,0
1238,10638,548.69,0
1239,10693,996.87,0
1240,10281,1533.37,0
1241,9855,2132.94,0
1242,9736,2766.84,0
1243,9939,3404.31,0
1244,10288,4008.25,0
1245,10310,4529.22,0
1246,9527,4904.37,0
1247,7892,5064.63,0
1248,5777,4949.05,0
1249,3863,4522.52,0
1250,2786,3791.62,0
1251,2823,2812.29,0
1252,3789,1685.28,0
1253,5115,538.96,0
1254,6103,-495.57,0
1255,6251,-1310.30,0
1256,5589,-1840.15,0
1257,4636,-2071.96,0
1258,3982,-2040.50,0
1259,4025,-1813.52,0
1260,4768,-1472.43,0
1261,5873,-1095.22,0
1262,6675,-745.18,0
1263,6741,-465.88,0
1264,6022,-281.01,0
1265,4872,-196.76,0
1266,3955,-204.40,0
1267,3704,-282.66,0
1268,4248,-401.24,0
1269,5321,-526.58,0
1270,6357,-629.31,0
1271,6767,-690.72,0
1272,6355,-705.96,0
1273,5355,-683.18,0
1274,4368,-638.51,0
1275,3932,-588.64,0
1276,4298,-543.87,0
1277,5309,-505.23,0
1278,6475,-466.57,0
1279,7145,-419.88,0
1280,6945,-360.84,0
1281,5996,-292.56,0
1282,4800,-225.67,0
1283,3975,-174.47,0
1284,3924,-150.88,0
1285,4620,-159.68,0
1286,5732,-197.36,0
1287,6613,-254.21,0
1288,6760,-318.08,0
1289,6104,-378.07,0
1290,5015,-427.29,0
1291,4119,-463.18,0
1292,3884,-485.64,0
1293,4435,-494.59,0
1294,5509,-489.15,0
1295,6541,-468.74,0
1296,6948,-434.83,0
1297,6552,-391.94,0
1298,5598,-347.07,0
1299,4641,-307.23,0
1300,4203,-275.96,0
1301,4502,-251.26,0
1302,5397,-226.97,0
1303,6420,-197.06,0
1304,6953,-160.10,0
1305,6684,-121.44,0
1306,5757,-92.05,0
1307,4687,-84.22,0
1308,4063,-105.31,0
1309,4189,-152.45,0
1310,5022,-211.93,0
1311,6153,-264.09,0
1312,6941,-291.45,0
1313,6978,-285.88,0
1314,6246,-251.76,0
1315,5160,-203.53,0
1316,4353,-158.74,0
1317,4235,-129.61,0
1318,4926,-117.53,0
1319,5964,-113.49,0
1320,6897,-104.38,0
1321,7150,-81.42,0
1322,6583,-45.59,0
1323,5489,-7.62,0
1324,4481,17.19,0
1325,4066,16.90,0
1326,4454,-10.63,0
1327,5440,-56.34,0
1328,6545,-104.39,0
1329,7139,-139.21,0
1330,6908,-151.64,0
1331,6034,-141.73,0
1332,5001,-117.00,0
1333,4431,-87.22,0
1334,4628,-58.24,0
1335,5488,-28.84,0
1336,6616,7.37,0
1337,7365,56.63,0
1338,7316,119.41,0
1339,6521,187.74,0
1340,5388,247.07,0
1341,4540,282.34,0
1342,4410,285.11,0
1343,5053,258.01,0
1344,6139,213.65,0
1345,7028,168.74,0
1346,7243,136.42,0
1347,6650,120.49,0
1348,5557,114.63,0
1349,4556,106.75,0
1350,4193,86.39,0
1351,4644,50.95,0
1352,5705,7.62,0
1353,6836,-29.90,0
1354,7441,-47.71,0
1355,7227,-37.65,0
1356,6326,-0.30,0
1357,5248,55.93,0
1358,4603,118.83,0
1359,4721,177.46,0
1360,5535,225.59,0
1361,6630,262.08,0
1362,7378,288.64,0
1363,7355,306.83,0
1364,6574,316.07,0
1365,5465,313.51,0
1366,4669,296.42,0
1367,4581,265.83,0
1368,5251,228.64,0
1369,6385,196.22,0
1370,7344,180.08,0
1371,7620,187.00,0
1372,7051,215.99,0
1373,5967,258.16,0
1374,4927,300.01,0
1375,4513,328.72,0
1376,4918,337.19,0
1377,5918,326.21,0
1378,7006,303.06,0
1379,7535,277.43,0
1380,7243,257.00,0
1381,6295,244.44,0
1382,5198,237.28,0
1383,4581,230.78,0
1384,4717,221.74,0
1385,5506,210.63,0
1386,6558,200.45,0
1387,7224,193.39,0
1388,7119,188.02,0
1389,6265,178.40,0
1390,5116,155.96,0
1391,4291,113.61,0
1392,4186,50.28,0
1393,4852,-26.86,0
1394,5974,-104.42,0
1395,6898,-167.81,0
1396,7116,-206.82,0
1397,6492,-219.60,0
1398,5349,-213.43,0
1399,4342,-201.66,0
1400,3957,-197.72,0
1401,4384,-209.16,0
1402,5403,-235.10,0
1403,6487,-268.08,0
1404,7002,-298.40,0
1405,6701,-318.72,0
1406,5745,-326.83,0
1407,4682,-325.62,0
1408,4053,-320.26,0
1409,4189,-314.76,0
1410,4995,-310.40,0
1411,6052,-306.64,0
1412,6733,-303.27,0
1413,6624,-302.29,0
1414,5777,-308.27,0
1415,4636,-327.22,0
1416,3851,-363.47,0
1417,3805,-416.03,0
1418,4531,-476.70,0
1419,5642,-532.06,0
1420,6566,-568.55,0
1421,6779,-578.12,0
1422,6180,-561.45,0
1423,5117,-527.50,0
1424,4219,-489.16,0
1425,3953,-457.00,0
1426,4458,-434.24,0
1427,5490,-416.27,0
1428,6529,-394.78,0
1429,6958,-363.58,0
1430,6560,-322.80,0
1431,5565,-279.71,0
1432,4504,-245.61,0
1433,3956,-229.99,0
1434,4181,-235.35,0
1435,5066,-255.75,0
1436,6161,-280.03,0
1437,6850,-297.30,0
1438,6744,-301.72,0
1439,5936,-294.54,0
1440,4876,-282.45,0
1441,4162,-272.99,0
1442,4202,-269.43,0
1443,5009,-268.01,0
1444,6239,-259.23,0
1445,7211,-232.08,0
1446,7449,-179.17,0
1447,6836,-100.74,0
1448,5719,-5.77,0
1449,4717,90.66,0
1450,4357,172.63,0
1451,4763,228.77,0
1452,5729,254.98,0
1453,6688,253.40,0
1454,7086,229.30,0
1455,6711,188.09,0
1456,5782,134.02,0
1457,4834,71.41,0
1458,4423,7.40,0
1459,4778,-46.42,0
1460,5746,-75.43,0
1461,6843,-67.07,0
1462,7452,-16.86,0
1463,7233,67.59,0
1464,6297,167.09,0
1465,5126,256.07,0
1466,4356,311.20,0
1467,4359,319.78,0
1468,5107,284.06,0
1469,6257,219.28,0
1470,7153,147.00,0
1471,7331,86.97,0
1472,6728,51.14,0
1473,5694,41.71,0
1474,4833,53.59,0
1475,4605,79.54,0
1476,5143,114.55,0
1477,6187,157.00,0
1478,7161,206.63,0
1479,7526,261.24,0
1480,7063,314.57,0
1481,6047,356.70,0
1482,4937,377.25,0
1483,4365,369.65,0
1484,4595,334.21,0
1485,5470,278.22,0
1486,6537,213.22,0
1487,7170,150.70,0
1488,7016,98.22,0
1489,6190,57.74,0
1490,5146,26.74,0
1491,4497,1.82,0
1492,4553,-17.35,0
1493,5321,-26.68,0
1494,6413,-19.99,0
1495,7190,6.40,0
1496,7208,49.73,0
1497,6442,99.31,0
1498,5281,138.84,0
1499,4372,152.15,0
1500,4172,130.39,0
1501,4762,76.72,0
1502,5867,5.79,0
1503,6912,-62.09,0
1504,7304,-108.71,0
1505,6866,-124.32,0
1506,5866,-110.23,0
1507,4845,-76.53,0
1508,4355,-36.35,0
1509,4629,0.02,0
1510,5515,27.89,0
1511,6534,47.05,0
1512,7061,58.44,0
1513,6774,60.91,0
1514,5814,49.90,0
1515,4681,18.93,0
1516,3988,-36.25,0
1517,4063,-113.16,0
1518,4853,-200.94,0
1519,5975,-283.38,0
1520,6796,-344.92,0
1521,6895,-376.43,0
1522,6211,-378.08,0
1523,5124,-358.34,0
1524,4278,-329.58,0
1525,4100,-302.35,0
1526,4669,-281.12,0
1527,5733,-264.00,0
1528,6689,-246.01,0
1529,6980,-223.65,0
1530,6428,-198.26,0
1531,5327,-176.94,0
1532,4309,-169.84,0
1533,3842,-184.80,0
1534,4182,-222.25,0
1535,5132,-274.13,0
1536,6209,-327.35,0
1537,6792,-369.45,0
1538,6595,-393.39,0
1539,5712,-399.49,0
1540,4642,-393.83,0
1541,3957,-384.23,0
1542,4014,-376.12,0
1543,4752,-370.63,0
1544,5784,-365.88,0
1545,6498,-360.29,0
1546,6497,-355.46,0
1547,5759,-356.78,0
1548,4719,-371.19,0
1549,3957,-402.70,0
1550,3873,-448.00,0
1551,4540,-495.29,0
1552,5647,-527.95,0
1553,6610,-531.28,0
1554,6886,-498.93,0
1555,6337,-436.15,0
1556,5241,-358.60,0
1557,4223,-286.95,0
1558,3789,-239.09,0
1559,4141,-223.51,0
1560,5105,-237.23,0
1561,6188,-268.88,0
1562,6744,-304.45,0
1563,6498,-332.97,0
1564,5599,-349.88,0
1565,4581,-356.80,0
1566,4007,-357.81,0
1567,4171,-354.69,0
1568,5013,-344.73,0
1569,6150,-322.48,0
1570,6949,-283.69,0
1571,6976,-228.72,0
1572,6221,-163.74,0
1573,5088,-99.64,0
1574,4201,-48.57,0
1575,3977,-19.58,0
1576,4512,-15.57,0
1577,5523,-33.42,0
1578,6434,-66.53,0
1579,6728,-107.94,0
1580,6243,-152.40,0
1581,5255,-196.85,0
1582,4349,-239.16,0
1583,4001,-275.89,0
1584,4396,-301.03,0
1585,5347,-307.42,0
1586,6337,-290.46,0
1587,6788,-251.87,0
1588,6432,-201.16,0
1589,5437,-153.97,0
1590,4396,-127.09,0
1591,3833,-131.75,0
1592,4046,-167.79,0
1593,4942,-222.69,0
1594,6103,-276.36,0
1595,6858,-309.13,0
1596,6800,-309.29,0
1597,5967,-277.54,0
1598,4803,-226.54,0
1599,3972,-175.35,0
1600,3865,-140.98,0
1601,4512,-131.45,0
1602,5612,-143.84,0
1603,6534,-167.88,0
1604,6789,-191.88,0
1605,6264,-208.07,0
1606,5253,-214.71,0
1607,4372,-214.39,0
1608,4098,-209.73,0
1609,4631,-199.44,0
1610,5726,-177.58,0
1611,6822,-136.29,0
1612,7324,-70.71,0
1613,6975,16.72,0
1614,6006,114.87,0
1615,4930,206.89,0
1616,4319,276.62,0
1617,4501,315.03,0
1618,5325,323.07,0
1619,6386,309.70,0
1620,7032,286.43,0
1621,6899,261.50,0
1622,6063,236.56,0
1623,4955,207.36,0
1624,4181,168.23,0
1625,4134,117.58,0
1626,4821,60.89,0
1627,5904,9.14,0
1628,6777,-26.35,0
1629,6964,-39.39,0
1630,6372,-31.96,0
1631,5329,-13.30,0
1632,4453,4.80,0
1633,4188,14.17,0
1634,4673,14.55,0
1635,5673,13.04,0
1636,6661,19.11,0
1637,7054,38.53,0
1638,6599,69.26,0
1639,5539,101.01,0
1640,4441,118.92,0
1641,3860,110.11,0
1642,4051,70.16,0
1643,4915,5.36,0
1644,6009,-70.19,0
1645,6701,-140.63,0
1646,6643,-194.15,0
1647,5868,-226.14,0
1648,4822,-238.90,0
1649,4098,-238.24,0
1650,4045,-229.18,0
1651,4693,-213.64,0
1652,5721,-191.44,0
1653,6520,-163.30,0
1654,6614,-133.45,0
1655,5958,-110.15,0
1656,4887,-103.70,0
1657,4050,-121.87,0
1658,3855,-164.62,0
1659,4433,-221.44,0
1660,5498,-273.80,0
1661,6515,-302.32,0
1662,6905,-294.86,0
1663,6441,-251.72,0
1664,5376,-186.17,0
1665,4318,-119.56,0
1666,3770,-72.85,0
1667,4055,-58.12,0
1668,4959,-74.56,0
1669,6017,-110.69,0
1670,6653,-151.10,0
1671,6493,-183.82,0
1672,5664,-204.57,0
1673,4682,-216.21,0
1674,4223,-223.45,0
1675,4622,-225.20,0
1676,5888,-209.10,0
1677,7581,-151.73,0
1678,9046,-24.74,0
1679,9801,196.03,0
1680,9781,522.52,0
1681,9344,950.98,0
1682,9033,1464.40,0
1683,9241,2038.53,0
1684,9887,2646.83,0
1685,10580,3259.94,0
1686,10819,3839.63,0
1687,10188,4332.74,0
1688,8528,4671.86,0
1689,6317,4785.37,0
1690,4278,4614.63,0
1691,3079,4133.46,0
1692,2978,3362.80,0
1693,3780,2374.04,0
1694,4912,1277.86,0
1695,5688,201.91,0
1696,5692,-735.60,0
1697,4989,-1448.55,0
1698,4080,-1895.72,0
1699,3552,-2081.10,0
1700,3733,-2043.69,0
1701,4609,-1842.66,0
1702,5793,-1543.41,0
1703,6659,-1207.25,0
1704,6752,-885.02,0
1705,6039,-613.96,0
1706,4916,-416.81,0
1707,4030,-301.66,0
1708,3805,-262.39,0
1709,4354,-280.86,0
1710,5414,-331.98,0
1711,6357,-390.70,0
1712,6660,-438.57,0
1713,6155,-467.69,0
1714,5107,-480.73,0
1715,4143,-486.81,0
1716,3709,-494.79,0
1717,4081,-507.69,0
1718,5071,-521.41,0
1719,6203,-527.62,0
1720,6855,-518.46,0
1721,6700,-490.29,0
1722,5832,-445.37,0
1723,4745,-390.87,0
1724,4044,-335.97,0
1725,4092,-288.18,0
1726,4810,-251.08,0
1727,5839,-224.80,0
1728,6565,-208.58,0
1729,6554,-203.30,0
1730,5793,-212.24,0
1731,4679,-239.75,0
1732,3847,-288.10,0
1733,3722,-353.77,0
1734,4353,-425.95,0
1735,5479,-488.84,0
1736,6485,-527.03,0
1737,6828,-531.18,0
1738,6314,-501.43,0
1739,5234,-447.63,0
1740,4205,-386.02,0
1741,3752,-333.12,0
1742,4112,-299.64,0
1743,5092,-287.35,0
1744,6203,-290.31,0
1745,6813,-298.95,0
1746,6601,-304.59,0
1747,5700,-302.76,0
1748,4644,-293.97,0
1749,4032,-281.40,0
1750,4178,-267.12,0
1751,5020,-249.64,0
1752,6160,-224.66,0
1753,6937,-188.36,0
1754,6931,-140.81,0
1755,6141,-87.86,0
1756,4960,-40.39,0
1757,4064,-10.62,0
1758,3877,-7.00,0
1759,4467,-30.22,0
1760,5558,-72.90,0
1761,6561,-122.84,0
1762,6923,-167.54,0
1763,6470,-197.92,0
1764,5445,-210.28,0
1765,4475,-206.03,0
1766,4067,-189.30,0
1767,4414,-164.04,0
1768,5327,-132.77,0
1769,6333,-97.80,0
1770,6831,-63.16,0
1771,6553,-35.35,0
1772,5654,-22.06,0
1773,4648,-29.00,0
1774,4119,-56.04,0
1775,4345,-94.77,0
1776,5260,-129.72,0
1777,6448,-143.37,0
1778,7229,-122.85,0
1779,7215,-65.08,0
1780,6409,21.25,0
1781,5233,117.89,0
1782,4352,203.10,0
1783,4186,259.19,0
1784,4797,278.37,0
1785,5880,263.98,0
1786,6807,227.25,0
1787,7082,181.65,0
1788,6550,137.78,0
1789,5538,100.88,0
1790,4641,71.84,0
1791,4334,50.89,0
1792,4791,40.88,0
1793,5800,47.34,0
1794,6804,75.10,0
1795,7278,123.86,0
1796,6940,185.84,0
1797,5989,246.97,0
1798,4939,291.79,0
1799,4392,309.83,0
1800,4632,300.56,0
1801,5538,274.26,0
1802,6678,247.66,0
1803,7413,236.78,0
1804,7360,250.19,0
1805,6561,285.87,0
1806,5456,332.71,0
1807,4650,376.11,0
1808,4545,404.77,0
1809,5202,415.02,0
1810,6280,410.84,0
1811,7155,400.05,0
1812,7344,389.46,0
1813,6725,381.03,0
1814,5646,371.21,0
1815,4684,353.70,0
1816,4349,324.30,0
1817,4785,284.69,0
1818,5809,242.46,0
1819,6850,207.77,0
1820,7335,188.61,0
1821,7020,187.24,0
1822,6095,199.36,0
1823,5075,216.70,0
1824,4539,231.60,0
1825,4755,241.25,0
1826,5601,248.62,0
1827,6653,259.66,0
1828,7284,278.40,0
1829,7141,303.20,0
1830,6273,325.91,0
1831,5151,334.74,0
1832,4368,319.62,0
1833,4327,277.85,0
1834,5016,216.40,0
1835,6110,149.57,0
1836,6993,92.96,0
1837,7184,57.35,0
1838,6581,44.97,0
1839,5530,49.78,0
1840,4621,61.39,0
1841,4332,70.81,0
1842,4789,74.79,0
1843,5775,76.12,0
1844,6724,80.03,0
1845,7085,89.31,0
1846,6611,100.99,0
1847,5548,106.00,0
1848,4485,92.67,0
1849,3959,52.80,0
1850,4237,-12.68,0
1851,5154,-92.25,0
1852,6281,-167.91,0
1853,6963,-222.36,0
1854,6811,-245.73,0
1855,5947,-239.20,0
1856,4827,-213.97,0
1857,4080,-185.73,0
1858,4050,-167.28,0
1859,4729,-163.49,0
1860,5785,-171.45,0
1861,6614,-184.58,0
1862,6730,-197.57,0
1863,6060,-209.55,0
1864,4980,-224.22,0
1865,4145,-246.81,0
1866,3977,-278.84,0
1867,4594,-314.25,0
1868,5698,-339.95,0
1869,6748,-341.25,0
1870,7166,-308.86,0
1871,6722,-243.89,0
1872,5672,-158.56,0
1873,4601,-72.40,0
1874,4060,-4.95,0
1875,4293,31.58,0
1876,5177,35.76,0
1877,6233,15.26,0
1878,6871,-18.36,0
1879,6733,-54.86,0
1880,5909,-88.56,0
1881,4846,-118.31,0
1882,4163,-144.84,0
1883,4228,-167.28,0
1884,5009,-181.21,0
1885,6133,-179.90,0
1886,6970,-157.97,0
1887,7061,-115.34,0
1888,6349,-59.31,0
1889,5250,-3.28,0
1890,4366,38.00,0
1891,4129,54.84,0
1892,4640,46.92,0
1893,5653,22.55,0
1894,6598,-6.27,0
1895,6940,-29.96,0
1896,6508,-45.19,0
1897,5532,-55.15,0
1898,4587,-66.00,0
1899,4178,-81.61,0
1900,4506,-99.68,0
1901,5445,-112.06,0
1902,6507,-109.15,0
1903,7098,-85.48,0
1904,6869,-43.25,0
1905,5969,7.36,0
1906,4856,51.52,0
1907,4145,75.66,0
1908,4186,73.19,0
1909,4939,47.13,0
1910,6048,8.21,0
1911,6853,-30.27,0
1912,6926,-58.03,0
1913,6234,-71.65,0
1914,5171,-74.84,0
1915,4341,-74.96,0
1916,4170,-77.61,0
1917,4726,-82.78,0
1918,5744,-85.30,0
1919,6638,-79.13,0
1920,6919,-62.29,0
1921,6396,-39.61,0
1922,5364,-21.61,0
1923,4422,-19.82,0
1924,4045,-40.35,0
1925,4444,-79.31,0
1926,5417,-123.34,0
1927,6495,-155.31,0
1928,7073,-161.97,0
1929,6848,-139.43,0
1930,5945,-94.51,0
1931,4861,-41.58,0
1932,4176,3.70,0
1933,4197,30.64,0
1934,4910,36.52,0
1935,5953,25.21,0
1936,6702,3.24,0
1937,6752,-23.91,0
1938,6057,-53.84,0
1939,5017,-86.79,0
1940,4259,-123.18,0
1941,4170,-160.11,0
1942,4784,-189.69,0
1943,5848,-201.18,0
1944,6770,-186.25,0
1945,7041,-143.87,0
1946,6487,-82.34,0
1947,5403,-17.58,0
1948,4409,31.99,0
1949,3993,52.50,0
1950,4369,40.34,0
1951,5349,3.37,0
1952,6411,-43.07,0
1953,6938,-82.93,0
1954,6657,-106.04,0
1955,5703,-111.61,0
1956,4612,-107.33,0
1957,3961,-104.30,0
1958,4068,-110.70,0
1959,4870,-127.76,0
1960,5962,-150.21,0
1961,6715,-170.13,0
1962,6682,-181.73,0
1963,5898,-184.80,0
1964,4784,-185.19,0
1965,3954,-191.48,0
1966,3825,-209.64,0
1967,4469,-238.87,0
1968,5583,-271.43,0
1969,6591,-296.12,0
1970,6941,-303.04,0
1971,6491,-287.42,0
1972,5528,-251.02,0
1973,4583,-200.55,0
1974,4196,-144.06,0
1975,4565,-87.50,0
1976,5506,-33.57,0
1977,6517,17.01,0
1978,6991,63.06,0
1979,6647,100.93,0
1980,5649,123.94,0
1981,4539,124.10,0
1982,3894,95.98,0
1983,4024,40.82,0
1984,4838,-32.07,0
1985,5944,-107.90,0
1986,6687,-171.77,0
1987,6688,-213.84,0
1988,5970,-232.17,0
1989,4921,-232.03,0
1990,4171,-221.83,0
1991,4124,-207.95,0
1992,4812,-191.24,0
1993,5888,-167.47,0
1994,6764,-131.39,0
1995,6961,-81.85,0
1996,6365,-24.88,0
1997,5293,27.26,0
1998,4351,60.84,0
1999,4016,67.15,0
2000,4473,47.18,0
2001,5498,11.73,0
2002,6577,-23.21,0
2003,7114,-42.91,0
2004,6863,-39.26,0
2005,5997,-12.72,0
2006,4979,29.55,0
2007,4363,78.09,0
2008,4453,125.15,0
2009,5169,166.02,0
2010,6124,197.67,0
2011,6705,216.38,0
2012,6550,216.46,0
2013,5710,190.79,0
2014,4661,133.68,0
2015,3981,45.34,0
2016,4015,-64.13,0
2017,4761,-174.61,0
2018,5907,-261.30,0
2019,6814,-303.27,0
2020,7020,-291.12,0
2021,6411,-230.50,0
2022,5319,-140.36,0
2023,4359,-46.24,0
2024,4001,28.72,0
2025,4412,71.09,0
2026,5393,79.68,0
2027,6396,62.74,0
2028,6848,32.42,0
2029,6490,-0.85,0
2030,5542,-31.82,0
2031,4553,-60.33,0
2032,4058,-87.73,0
2033,4319,-112.50,0
2034,5211,-128.62,0
2035,6311,-127.94,0
2036,7004,-104.80,0
2037,6908,-59.88,0
2038,6114,-1.31,0
2039,5055,57.63,0
2040,4351,103.93,0
2041,4349,130.67,0
2042,5058,140.09,0
2043,6150,141.76,0
2044,6989,147.10,0
2045,7134,163.42,0
2046,6504,190.22,0
2047,5449,219.54,0
2048,4573,240.48,0
2049,4350,245.54,0
2050,4914,235.63,0
2051,6049,220.53,0
2052,7131,214.95,0
2053,7614,232.21,0
2054,7220,278.17,0
2055,6206,347.97,0
2056,5095,427.34,0
2057,4474,497.95,0
2058,4615,544.31,0
2059,5400,558.37,0
2060,6409,540.20,0
2061,7026,495.44,0
2062,6884,431.79,0
2063,6060,356.22,0
2064,4980,274.02,0
2065,4249,189.87,0
2066,4242,109.78,0
2067,4932,41.86,0
2068,5983,-5.52,0
2069,6788,-27.33,0
2070,6910,-25.03,0
2071,6271,-7.15,0
2072,5241,13.27,0
2073,4423,24.02,0
2074,4228,19.47,0
2075,4756,3.62,0
2076,5759,-12.13,0
2077,6673,-15.47,0
2078,6974,-0.18,0
2079,6460,29.83,0
2080,5389,61.14,0
2081,4359,76.23,0
2082,3864,61.50,0
2083,4176,14.18,0
2084,5126,-55.85,0
2085,6274,-130.00,0
2086,6971,-188.20,0
2087,6900,-215.84,0
2088,6128,-207.91,0
2089,5085,-169.10,0
2090,4398,-110.15,0
2091,4381,-42.86,0
2092,5031,23.65,0
2093,5995,83.32,0
2094,6652,130.99,0
2095,6591,159.90,0
2096,5779,160.71,0
2097,4642,123.40,0
2098,3792,42.14,0
2099,3656,-78.87,0
2100,4321,-222.42,0
2101,5573,-360.83,0
2102,6856,-462.93,0
2103,7626,-501.63,0
2104,7664,-459.14,0
2105,7211,-328.55,0
2106,6789,-111.90,0
2107,6908,184.11,0
2108,7782,552.26,0
2109,9261,986.24,0
2110,10850,1479.04,0
2111,11040,2017.99,0
2112,11017,2576.71,0
2113,10753,3113.30,0
2114,9618,3583.82,0
2115,8285,3957.45,0
2116,7266,4214.98,0
2117,6800,4335.78,0
2118,6749,4290.63,0
2119,6632,4047.58,0
2120,6042,3586.58,0
2121,4938,2913.77,0
2122,3736,2068.30,0
2123,2931,1120.49,0
2124,2907,162.53,0
2125,3699,-706.38,0
2126,5014,-1397.93,0
2127,6270,-1851.19,0
2128,6828,-2043.16,0
2129,6494,-1991.47,0
2130,5551,-1749.15,0
2131,4586,-1392.14,0
2132,4126,-1001.67,0
2133,4413,-646.54,0
2134,5295,-371.35,0
2135,6325,-193.38,0
2136,6872,-107.21,0
2137,6646,-93.65,0
2138,5777,-129.33,0
2139,4761,-193.38,0
2140,4181,-269.08,0
2141,4331,-342.01,0
2142,5137,-398.12,0
2143,6221,-424.74,0
2144,6927,-414.39,0
2145,6858,-368.92,0
2146,6011,-301.65,0
2147,4825,-235.29,0
2148,3955,-195.11,0
2149,3833,-199.10,0
2150,4494,-249.95,0
2151,5631,-333.25,0
2152,6637,-423.13,0
2153,6959,-492.49,0
2154,6437,-523.18,0
2155,5369,-512.23,0
2156,4372,-471.32,0
2157,3951,-419.83,0
2158,4298,-375.49,0
2159,5235,-347.69,0
2160,6263,-336.52,0
2161,6780,-336.27,0
2162,6504,-340.78,0
2163,5583,-347.54,0
2164,4544,-358.60,0
2165,3963,-377.49,0
2166,4151,-404.43,0
2167,5011,-433.26,0
2168,6170,-452.62,0
2169,6991,-450.52,0
2170,7039,-419.67,0
2171,6319,-361.13,0
2172,5248,-284.80,0
2173,4461,-205.81,0
2174,4325,-138.14,0
2175,4909,-89.16,0
2176,5925,-58.38,0
2177,6772,-40.49,0
2178,6976,-30.24,0
2179,6390,-26.42,0
2180,5315,-32.87,0
2181,4381,-55.84,0
2182,4038,-98.80,0
2183,4471,-157.82,0
2184,5459,-220.90,0
2185,6493,-272.25,0
2186,6980,-298.91,0
2187,6693,-296.33,0
2188,5822,-270.13,0
2189,4880,-232.79,0
2190,4396,-196.65,0
2191,4622,-167.26,0
2192,5446,-141.29,0
2193,6484,-110.26,0
2194,7123,-67.34,0
2195,6986,-12.95,0
2196,6138,43.27,0
2197,5009,85.28,0
2198,4220,97.23,0
2199,4171,71.24,0
2200,4888,12.24,0
2201,6039,-62.83,0
2202,7014,-130.99,0
2203,7301,-171.54,0
2204,6767,-173.17,0
2205,5733,-137.29,0
2206,4754,-76.24,0
2207,4359,-7.45,0
2208,4742,53.27,0
2209,5714,96.42,0
2210,6730,119.87,0
2211,7237,126.97,0
2212,6964,123.15,0
2213,6068,112.99,0
2214,5059,99.17,0
2215,4530,83.62,0
2216,4739,69.59,0
2217,5597,62.77,0
2218,6677,69.65,0
2219,7352,94.26,0
2220,7265,135.03,0
2221,6471,183.71,0
2222,5412,227.52,0
2223,4700,254.38,0
2224,4696,258.83,0
2225,5391,245.25,0
2226,6474,225.96,0
2227,7313,215.09,0
2228,7477,221.71,0
2229,6844,245.49,0
2230,5775,276.93,0
2231,4826,301.87,0
2232,4507,308.41,0
2233,4940,292.44,0
2234,5907,258.86,0
2235,6866,218.20,0
2236,7310,180.99,0
2237,6993,153.19,0
2238,6121,134.88,0
2239,5188,122.61,0
2240,4740,113.73,0
2241,5009,109.86,0
2242,5901,117.16,0
2243,6951,142.87,0
2244,7560,190.32,0
2245,7373,255.09,0
2246,6473,324.12,0
2247,5316,378.84,0
2248,4515,401.45,0
2249,4444,382.02,0
2250,5123,322.69,0
2251,6228,236.91,0
2252,7095,144.34,0
2253,7268,63.88,0
2254,6642,7.45,0
2255,5571,-23.10,0
2256,4649,-34.49,0
2257,4357,-36.86,0
2258,4818,-38.05,0
2259,5798,-40.70,0
2260,6762,-43.34,0
2261,7144,-43.69,0
2262,6743,-42.01,0
2263,5768,-42.31,0
2264,4754,-50.78,0
2265,4233,-71.95,0
2266,4483,-105.14,0
2267,5334,-143.68,0
2268,6354,-177.84,0
2269,6922,-199.73,0
2270,6720,-207.72,0
2271,5849,-207.89,0
2272,4769,-211.61,0
2273,4067,-229.74,0
2274,4091,-266.58,0
2275,4820,-316.99,0
2276,5920,-368.48,0
2277,6749,-406.94,0
2278,6867,-422.76,0
2279,6196,-415.01,0
2280,5107,-391.72,0
2281,4228,-366.13,0
2282,3990,-350.20,0
2283,4528,-348.87,0
2284,5577,-358.45,0
2285,6564,-369.49,0
2286,6936,-372.35,0
2287,6490,-362.39,0
2288,5476,-342.58,0
2289,4478,-321.83,0
2290,4019,-309.79,0
2291,4337,-310.90,0
2292,5277,-321.65,0
2293,6385,-332.52,0
2294,7036,-332.90,0
2295,6897,-316.24,0
2296,6066,-283.04,0
2297,5017,-240.41,0
2298,4363,-198.17,0
2299,4428,-163.51,0
2300,5135,-137.53,0
2301,6159,-116.16,0
2302,6886,-94.66,0
2303,6909,-72.19,0
2304,6207,-53.78,0
2305,5149,-48.48,0
2306,4355,-64.24,0
2307,4221,-102.14,0
2308,4846,-153.32,0
2309,5946,-201.07,0
2310,6861,-227.35,0
2311,7167,-220.73,0
2312,6619,-182.07,0
2313,5533,-125.00,0
2314,4484,-70.83,0
2315,3984,-39.98,0
2316,4271,-43.87,0
2317,5205,-81.33,0
2318,6284,-140.64,0
2319,6881,-205.21,0
2320,6663,-260.20,0
2321,5749,-297.90,0
2322,4643,-319.33,0
2323,3951,-331.62,0
2324,4013,-342.55,0
2325,4783,-355.76,0
2326,5909,-369.48,0
2327,6746,-378.46,0
2328,6858,-377.55,0
2329,6199,-364.71,0
2330,5152,-342.33,0
2331,4322,-315.84,0
2332,4120,-290.30,0
2333,4653,-267.73,0
2334,5660,-246.89,0
2335,6561,-225.67,0
2336,6838,-203.86,0
2337,6303,-185.00,0
2338,5251,-176.17,0
2339,4275,-185.24,0
2340,3874,-216.26,0
2341,4281,-265.45,0
2342,5268,-320.78,0
2343,6351,-365.98,0
2344,6934,-387.01,0
2345,6718,-377.67,0
2346,5838,-341.80,0
2347,4781,-291.24,0
2348,4135,-240.31,0
2349,4223,-199.82,0
2350,5007,-173.46,0
2351,6100,-158.22,0
2352,6871,-147.86,0
2353,6903,-137.05,0
2354,6181,-124.47,0
2355,5120,-113.25,0
2356,4325,-108.41,0
2357,4205,-112.49,0
2358,4803,-122.54,0
2359,5876,-130.82,0
2360,6800,-128.75,0
2361,7088,-111.44,0
2362,6563,-80.59,0
2363,5523,-44.41,0
2364,4550,-14.38,0
2365,4145,0.12,0
2366,4511,-3.71,0
2367,5466,-20.97,0
2368,6518,-41.98,0
2369,7075,-57.04,0
2370,6826,-60.58,0
2371,5924,-53.14,0
2372,4859,-40.41,0
2373,4215,-29.86,0
2374,4268,-26.55,0
2375,5001,-31.21,0
2376,6007,-41.43,0
2377,6683,-54.61,0
2378,6628,-70.64,0
2379,5840,-92.85,0
2380,4766,-126.76,0
2381,3980,-176.41,0
2382,3891,-240.28,0
2383,4538,-309.34,0
2384,5631,-369.32,0
2385,6564,-406.16,0
2386,6840,-411.65,0
2387,6307,-386.79,0
2388,5284,-341.57,0
2389,4375,-290.89,0
2390,4063,-247.87,0
2391,4534,-218.06,0
2392,5559,-197.72,0
2393,6619,-177.07,0
2394,7119,-146.47,0
2395,6798,-102.09,0
2396,5830,-48.61,0
2397,4727,2.45,0
2398,4084,37.97,0
2399,4194,49.27,0
2400,5000,35.68,0
2401,6078,4.03,0
2402,6790,-35.14,0
2403,6739,-72.32,0
2404,5936,-102.90,0
2405,4839,-128.22,0
2406,4074,-153.14,0
2407,4023,-181.09,0
2408,4707,-210.12,0
2409,5806,-232.77,0
2410,6701,-240.04,0
2411,6906,-226.63,0
2412,6310,-194.77,0
2413,5249,-154.37,0
2414,4341,-119.03,0
2415,4055,-99.45,0
2416,4561,-97.73,0
2417,5639,-106.20,0
2418,6708,-111.19,0
2419,7179,-99.74,0
2420,6798,-66.05,0
2421,5786,-14.94,0
2422,4693,39.87,0
2423,4115,82.05,0
2424,4340,100.51,0
2425,5229,94.39,0
2426,6352,72.56,0
2427,7056,48.50,0
2428,7012,33.70,0
2429,6277,33.11,0
2430,5274,44.80,0
2431,4605,63.79,0
2432,4605,87.05,0
2433,5313,116.18,0
2434,6388,155.87,0
2435,7232,209.58,0
2436,7390,275.48,0
2437,6784,344.96,0
2438,5782,404.94,0
2439,4947,443.44,0
2440,4753,455.92,0
2441,5286,448.75,0
2442,6310,436.94,0
2443,7266,437.13,0
2444,7640,459.42,0
2445,7196,502.41,0
2446,6204,553.52,0
2447,5153,594.64,0
2448,4619,610.42,0
2449,4845,595.08,0
2450,5689,554.18,0
2451,6666,500.86,0
2452,7189,448.43,0
2453,6920,403.47,0
2454,5961,362.63,0
2455,4762,314.75,0
2456,3939,247.15,0
2457,3855,152.86,0
2458,4496,34.80,0
2459,5532,-95.14,0
2460,6380,-221.20,0
2461,6541,-329.56,0
2462,5958,-412.37,0
2463,4965,-468.67,0
2464,4166,-502.00,0
2465,3958,-516.02,0
2466,4481,-511.37,0
2467,5479,-486.14,0
2468,6438,-439.33,0
2469,6796,-374.62,0
2470,6375,-301.87,0
2471,5405,-235.42,0
2472,4471,-189.40,0
2473,4047,-171.48,0
2474,4388,-178.62,0
2475,5339,-197.54,0
2476,6442,-210.35,0
2477,7077,-201.97,0
2478,6885,-166.34,0
2479,5979,-108.95,0
2480,4815,-44.95,0
2481,3987,6.61,0
2482,3875,29.84,0
2483,4493,17.08,0
2484,5501,-30.18,0
2485,6287,-103.66,0
2486,6353,-192.23,0
2487,5645,-286.05,0
2488,4569,-379.11,0
2489,3713,-468.74,0
2490,3545,-552.28,0
2491,4219,-623.48,0
2492,5513,-671.37,0
2493,6879,-681.66,0
2494,7770,-639.41,0
2495,7910,-531.62,0
2496,7510,-349.30,0
2497,7100,-88.54,0
2498,7210,249.95,0
2499,8078,662.20,0
2500,9588,1141.82,0
2501,11004,1679.12,0
2502,11033,2256.27,0
2503,11009,2839.07,0
2504,10399,3376.65,0
2505,8886,3816.59,0
2506,7229,4119.60,0
2507,6070,4258.67,0
2508,5684,4210.94,0
2509,5833,3956.79,0
2510,6029,3488.50,0
2511,5786,2821.54,0
2512,4993,2000.59,0
2513,3982,1096.57,0
2514,3260,196.10,0
2515,3215,-612.70,0
2516,3935,-1254.69,0
2517,5145,-1680.15,0
2518,6264,-1872.46,0
2519,6733,-1849.46,0
2520,6371,-1658.15,0
2521,5438,-1364.20,0
2522,4545,-1037.65,0
2523,4168,-737.65,0
2524,4524,-500.98,0
2525,5449,-338.49,0
2526,6449,-240.56,0
2527,6924,-187.94,0
2528,6583,-163.13,0
2529,5586,-157.82,0
2530,4459,-173.78,0
2531,3785,-217.04,0
2532,3923,-289.39,0
2533,4784,-382.22,0
2534,5928,-476.70,0
2535,6737,-550.15,0
2536,6781,-585.23,0
2537,6051,-577.28,0
2538,4960,-535.98,0
2539,4124,-480.49,0
2540,3963,-430.35,0
2541,4555,-397.22,0
2542,5585,-381.77,0
2543,6485,-376.67,0
2544,6761,-373.10,0
2545,6253,-366.67,0
2546,5256,-359.77,0
2547,4350,-358.97,0
2548,3999,-369.28,0
2549,4430,-388.88,0
2550,5432,-408.04,0
2551,6513,-413.02,0
2552,7074,-392.49,0
2553,6821,-343.32,0
2554,5922,-272.96,0
2555,4876,-197.00,0
2556,4274,-132.56,0
2557,4436,-90.71,0
2558,5248,-71.86,0
2559,6315,-67.00,0
2560,7029,-63.67,0
2561,7001,-53.10,0
2562,6243,-34.72,0
2563,5148,-16.02,0
2564,4327,-7.82,0
2565,4184,-17.78,0
2566,4806,-45.62,0
2567,5888,-82.84,0
2568,6809,-116.58,0
2569,7085,-135.54,0
2570,6564,-135.16,0
2571,5560,-119.43,0
2572,4647,-98.11,0
2573,4327,-80.78,0
2574,4771,-70.98,0
2575,5793,-64.30,0
2576,6877,-51.16,0
2577,7381,-22.43,0
2578,7105,25.07,0
2579,6164,85.70,0
2580,5051,146.60,0
2581,4374,192.92,0
2582,4451,213.77,0
2583,5221,206.22,0
2584,6269,175.39,0
2585,6975,131.17,0
2586,6941,83.42,0
2587,6185,38.03,0
2588,5118,-4.26,0
2589,4342,-45.60,0
2590,4256,-86.96,0
2591,4919,-124.94,0
2592,6037,-151.98,0
2593,6988,-159.49,0
2594,7274,-142.12,0
2595,6763,-100.96,0
2596,5760,-44.23,0
2597,4848,15.69,0
2598,4548,67.63,0
2599,5018,106.75,0
2600,6063,136.33,0
2601,7102,165.13,0
2602,7588,201.93,0
2603,7257,249.96,0
2604,6304,304.26,0
2605,5249,353.58,0
2606,4681,386.09,0
2607,4876,395.65,0
2608,5757,385.31,0
2609,6845,365.78,0
2610,7505,349.94,0
2611,7392,346.27,0
2612,6536,354.27,0
2613,5391,364.58,0
2614,4583,364.00,0
2615,4522,342.69,0
2616,5210,299.91,0
2617,6340,244.83,0
2618,7258,192.40,0
2619,7487,156.67,0
2620,6895,144.83,0
2621,5831,154.47,0
2622,4864,175.56,0
2623,4501,195.94,0
2624,4913,207.01,0
2625,5896,206.59,0
2626,6905,197.98,0
2627,7359,186.56,0
2628,7032,176.05,0
2629,6113,166.45,0
2630,5094,154.86,0
2631,4569,138.73,0
2632,4819,119.25,0
2633,5751,102.59,0
2634,6903,98.10,0
2635,7632,114.30,0
2636,7579,154.57,0
2637,6800,214.55,0
2638,5724,283.05,0
2639,4915,346.26,0
2640,4754,392.96,0
2641,5321,417.53,0
2642,6281,419.55,0
2643,7048,401.35,0
2644,7182,365.26,0
2645,6585,312.29,0
2646,5566,242.90,0
2647,4699,159.55,0
2648,4445,69.33,0
2649,4915,-15.41,0
2650,5880,-80.07,0
2651,6799,-113.48,0
2652,7145,-113.31,0
2653,6682,-88.37,0
2654,5629,-56.51,0
2655,4564,-38.78,0
2656,4048,-51.33,0
2657,4313,-98.65,0
2658,5221,-171.48,0
2659,6322,-250.93,0
2660,6994,-316.54,0
2661,6868,-354.23,0
2662,6041,-361.02,0
2663,4966,-344.70,0
2664,4234,-318.78,0
2665,4224,-295.45,0
2666,4927,-280.38,0
2667,6003,-272.08,0
2668,6829,-265.14,0
2669,6939,-255.06,0
2670,6256,-242.01,0
2671,5154,-231.76,0
2672,4221,-232.94,0
2673,3923,-251.99,0
2674,4383,-288.92,0
2675,5388,-336.82,0
2676,6396,-384.97,0
2677,6802,-423.36,0
2678,6409,-446.57,0
2679,5423,-455.61,0
2680,4452,-456.65,0
2681,3985,-456.64,0
2682,4288,-458.45,0
2683,5218,-458.85,0
2684,6312,-450.68,0
2685,6953,-427.46,0
2686,6778,-387.78,0
2687,5903,-337.47,0
2688,4811,-288.34,0
2689,4102,-253.27,0
2690,4161,-239.95,0
2691,4951,-246.80,0
2692,6106,-263.45,0
2693,6984,-275.45,0
2694,7132,-270.70,0
2695,6482,-244.55,0
2696,5413,-201.45,0
2697,4568,-152.08,0
2698,4365,-107.28,0
2699,4919,-72.40,0
2700,5960,-45.62,0
2701,6901,-20.87,0
2702,7227,6.90,0
2703,6734,37.46,0
2704,5692,64.07,0
2705,4668,76.47,0
2706,4203,66.59,0
2707,4538,33.86,0
2708,5481,-13.11,0
2709,6568,-59.76,0
2710,7162,-91.89,0
2711,6943,-101.78,0
2712,6036,-91.38,0
2713,4934,-71.14,0
2714,4261,-54.57,0
2715,4365,-51.11,0
2716,5159,-61.40,0
2717,6303,-77.46,0
2718,7130,-87.58,0
2719,7209,-82.58,0
2720,6507,-60.48,0
2721,5384,-27.53,0
2722,4447,4.75,0
2723,4141,24.89,0
2724,4587,25.88,0
2725,5546,6.53,0
2726,6459,-30.02,0
2727,6793,-78.94,0
2728,6375,-135.71,0
2729,5426,-196.81,0
2730,4523,-258.62,0
2731,4135,-315.44,0
2732,4476,-358.53,0
2733,5411,-378.03,0
2734,6444,-367.07,0
2735,6987,-325.81,0
2736,6724,-263.07,0
2737,5805,-194.91,0
2738,4729,-140.05,0
2739,4089,-113.21,0
2740,4182,-119.24,0
2741,4952,-151.19,0
2742,6015,-194.06,0
2743,6758,-231.90,0
2744,6785,-254.57,0
2745,6071,-261.10,0
2746,5004,-258.46,0
2747,4198,-256.61,0
2748,4071,-262.27,0
2749,4681,-274.84,0
2750,5759,-286.83,0
2751,6726,-288.23,0
2752,7086,-271.91,0
2753,6666,-237.01,0
2754,5707,-189.02,0
2755,4729,-136.92,0
2756,4272,-89.13,0
2757,4526,-50.74,0
2758,5345,-23.22,0
2759,6259,-6.69,0
2760,6720,-2.56,0
2761,6421,-14.65,0
2762,5515,-48.04,0
2763,4543,-106.01,0
2764,3999,-185.84,0
2765,4193,-276.04,0
2766,5061,-357.70,0
2767,6200,-410.20,0
2768,6955,-418.67,0
2769,6977,-379.75,0
2770,6227,-303.36,0
2771,5140,-209.67,0
2772,4311,-121.94,0
2773,4181,-58.30,0
2774,4795,-25.90,0
2775,5893,-20.18,0
2776,6839,-28.85,0
2777,7148,-38.23,0
2778,6655,-38.96,0
2779,5660,-28.85,0
2780,4731,-11.74,0
2781,4378,6.84,0
2782,4783,24.20,0
2783,5769,42.27,0
2784,6810,65.83,0
2785,7327,98.74,0
2786,7039,140.44,0
2787,6146,184.76,0
2788,5116,222.02,0
2789,4541,243.91,0
2790,4738,248.26,0
2791,5615,240.96,0
2792,6765,233.77,0
2793,7570,239.35,0
2794,7627,265.97,0
2795,6959,314.43,0
2796,5952,378.40,0
2797,5159,447.96,0
2798,5022,514.12,0
2799,5578,571.61,0
2800,6523,618.68,0
2801,7278,654.33,0
2802,7385,675.24,0
2803,6707,674.38,0
2804,5544,642.44,0
2805,4489,571.66,0
2806,4048,460.51,0
2807,4401,316.74,0
2808,5333,156.75,0
2809,6312,1.02,0
2810,6769,-132.46,0
2811,6419,-233.66,0
2812,5448,-302.94,0
2813,4417,-349.09,0
2814,3853,-383.74,0
2815,4073,-414.67,0
2816,4964,-442.12,0
2817,6115,-459.77,0
2818,6854,-459.21,0
2819,6777,-435.49,0
2820,5925,-391.45,0
2821,4761,-338.52,0
2822,3911,-293.11,0
2823,3788,-269.74,0
2824,4420,-274.95,0
2825,5507,-305.27,0
2826,6425,-349.76,0
2827,6627,-395.33,0
2828,6008,-432.30,0
2829,4915,-458.11,0
2830,3989,-476.88,0
2831,3698,-494.72,0
2832,4180,-513.99,0
2833,5207,-530.81,0
2834,6236,-537.40,0
2835,6699,-527.10,0
2836,6348,-498.97,0
2837,5358,-459.40,0
2838,4289,-420.13,0
2839,3668,-393.23,0
2840,3820,-386.00,0
2841,4646,-398.43,0
2842,5761,-424.21,0
2843,6526,-453.97,0
2844,6562,-478.50,0
2845,5949,-491.01,0
2846,5143,-487.12,0
2847,4776,-462.17,0
2848,5244,-407.11,0
2849,6536,-305.99,0
2850,8216,-137.70,0
2851,9712,117.91,0
2852,10480,472.26,0
2853,10483,922.57,0
2854,10010,1451.55,0
2855,9540,2032.12,0
2856,9362,2633.87,0
2857,9521,3225.76,0
2858,9831,3772.77,0
2859,9814,4230.15,0
2860,9025,4541.46,0
2861,7422,4644.23,0
2862,5383,4482.88,0
2863,3582,4026.07,0
2864,2577,3282.75,0
2865,2584,2310.01,0
2866,3436,1207.39,0
2867,4632,98.23,0
2868,5529,-895.61,0
2869,5706,-1677.28,0
2870,5173,-2190.56,0
2871,4384,-2424.64,0
2872,3875,-2408.45,0
2873,4025,-2197.66,0
2874,4824,-1859.78,0
2875,5928,-1461.85,0
2876,6726,-1062.55,0
2877,6769,-708.34,0
2878,6036,-432.40,0
2879,4893,-254.41,0
2880,3962,-179.75,0
2881,3657,-198.67,0
2882,4123,-287.71,0
2883,5120,-414.81,0
2884,6108,-547.20,0
2885,6520,-658.69,0
2886,6123,-734.43,0
2887,5122,-772.13,0
2888,4133,-779.67,0
2889,3640,-769.57,0
2890,3902,-752.79,0
2891,4789,-735.00,0
2892,5826,-716.97,0
2893,6436,-697.59,0
2894,6259,-677.07,0
2895,5391,-658.76,0
2896,4333,-648.52,0
2897,3673,-651.54,0
2898,3754,-668.16,0
2899,4564,-691.63,0
2900,5723,-709.72,0
2901,6602,-709.41,0
2902,6739,-682.22,0
2903,6062,-628.15,0
2904,4945,-556.38,0
2905,4044,-482.22,0
2906,3800,-421.07,0
2907,4330,-382.22,0
2908,5375,-366.11,0
2909,6370,-365.94,0
2910,6758,-371.99,0
2911,6333,-376.32,0
2912,5319,-375.82,0
2913,4323,-372.35,0
2914,3869,-369.86,0
2915,4193,-370.27,0
2916,5155,-371.12,0
2917,6272,-366.47,0
2918,6922,-350.06,0
2919,6753,-318.81,0
2920,5900,-275.13,0
2921,4801,-226.66,0
2922,4088,-183.25,0
2923,4111,-152.57,0
2924,4845,-137.06,0
2925,5928,-133.69,0
2926,6719,-136.59,0
2927,6825,-140.48,0
2928,6176,-143.16,0
2929,5153,-145.71,0
2930,4369,-150.19,0
2931,4206,-156.23,0
2932,4812,-159.13,0
2933,5938,-150.97,0
2934,6969,-123.93,0
2935,7347,-73.90,0
2936,6855,-3.22,0
2937,5771,78.29,0
2938,4679,155.16,0
2939,4143,211.15,0
2940,4389,235.07,0
2941,5280,224.36,0
2942,6353,184.93,0
2943,7006,128.13,0
2944,6882,66.98,0
2945,6093,12.82,0
2946,5099,-26.48,0
2947,4487,-46.40,0
2948,4549,-44.41,0
2949,5262,-19.51,0
2950,6264,26.35,0
2951,6924,86.27,0
2952,6882,147.64,0
2953,6119,193.92,0
2954,5015,209.02,0
2955,4199,183.18,0
2956,4065,117.87,0
2957,4710,27.03,0
2958,5843,-66.63,0
2959,6861,-138.95,0
2960,7225,-172.03,0
2961,6753,-159.69,0
2962,5787,-108.63,0
2963,4829,-34.77,0
2964,4462,44.07,0
2965,4854,115.18,0
2966,5842,174.34,0
2967,6904,224.42,0
2968,7447,270.68,0
2969,7158,315.84,0
2970,6214,357.04,0
2971,5118,386.62,0
2972,4462,396.35,0
2973,4576,382.77,0
2974,5389,350.27,0
2975,6505,309.83,0
2976,7292,274.43,0
2977,7348,253.91,0
2978,6663,251.44,0
2979,5651,263.58,0
2980,4851,283.48,0
2981,4700,305.47,0
2982,5243,327.57,0
2983,6232,350.63,0
2984,7024,375.07,0
2985,7267,397.73,0
2986,6710,411.22,0
2987,5675,406.23,0
2988,4710,375.92,0
2989,4334,319.99,0
2990,4751,246.69,0
2991,5753,171.23,0
2992,6816,110.93,0
2993,7353,79.07,0
2994,7085,80.10,0
2995,6161,108.14,0
2996,5080,149.58,0
2997,4400,188.69,0
2998,4475,213.39,0
2999,5228,218.62,0
3000,6271,206.04,0
3001,6984,181.07,0
3002,6957,149.26,0
3003,6219,113.72,0
3004,5157,74.69,0
3005,4365,31.64,0
3006,4250,-13.72,0
3007,4863,-55.87,0
3008,5917,-86.95,0
3009,6801,-100.29,0
3010,7017,-94.17,0
3011,6424,-73.72,0
3012,5355,-50.21,0
3013,4410,-36.97,0
3014,4062,-43.42,0
3015,4482,-70.28,0
3016,5460,-109.09,0
3017,6451,-146.63,0
3018,6893,-171.55,0
3019,6530,-179.81,0
3020,5549,-176.58,0
3021,4500,-173.35,0
3022,3948,-181.56,0
3023,4173,-205.87,0
3024,5079,-241.06,0
3025,6251,-274.19,0
3026,7041,-290.44,0
3027,7026,-279.38,0
3028,6242,-239.48,0
3029,5098,-179.10,0
3030,4235,-113.34,0
3031,4092,-58.17,0
3032,4692,-24.52,0
3033,5750,-15.48,0
3034,6650,-27.20,0
3035,6890,-52.19,0
3036,6333,-83.13,0
3037,5299,-115.43,0
3038,4379,-147.28,0
3039,4027,-177.48,0
3040,4439,-203.17,0
3041,5399,-219.76,0
3042,6424,-223.17,0
3043,6936,-212.30,0
3044,6633,-190.12,0
3045,5721,-163.14,0
3046,4700,-139.22,0
3047,4142,-124.26,0
3048,4332,-119.27,0
3049,5170,-119.79,0
3050,6256,-118.42,0
3051,6961,-108.84,0
3052,6936,-88.93,0
3053,6217,-61.66,0
3054,5214,-33.23,0
3055,4527,-9.11,0
3056,4495,9.70,0
3057,5156,27.65,0
3058,6167,51.89,0
3059,6933,87.04,0
3060,7008,130.88,0
3061,6301,172.93,0
3062,5161,197.17,0
3063,4237,188.28,0
3064,3955,138.99,0
3065,4460,55.12,0
3066,5507,-45.35,0
3067,6555,-138.69,0
3068,7005,-204.09,0
3069,6648,-230.76,0
3070,5713,-220.71,0
3071,4757,-186.02,0
3072,4315,-141.60,0
3073,4602,-97.55,0
3074,5487,-55.69,0
3075,6509,-11.99,0
3076,7065,37.33,0
3077,6835,90.21,0
3078,5917,136.69,0
3079,4779,161.78,0
3080,4044,152.25,0
3081,4060,103.93,0
3082,4808,25.42,0
3083,5960,-64.15,0
3084,6864,-141.98,0
3085,7068,-189.62,0
3086,6482,-198.73,0
3087,5428,-172.72,0
3088,4516,-123.77,0
3089,4202,-67.05,0
3090,4652,-14.98,0
3091,5619,25.55,0
3092,6551,52.60,0
3093,6898,66.42,0
3094,6429,66.56,0
3095,5391,50.36,0
3096,4374,14.10,0
3097,3885,-43.23,0
3098,4175,-116.18,0
3099,5093,-192.20,0
3100,6190,-255.45,0
3101,6846,-292.67,0
3102,6721,-298.14,0
3103,5904,-275.65,0
3104,4852,-236.49,0
3105,4179,-194.26,0
3106,4250,-158.70,0
3107,5045,-131.76,0
3108,6183,-107.94,0
3109,7035,-78.52,0
3110,7121,-37.26,0
3111,6380,14.99,0
3112,5205,68.94,0
3113,4242,109.91,0
3114,3974,124.43,0
3115,4525,106.93,0
3116,5631,62.86,0
3117,6706,6.73,0
3118,7181,-43.44,0
3119,6878,-72.51,0
3120,6009,-72.49,0
3121,5101,-42.83,0
3122,4671,12.30,0
3123,4960,87.40,0
3124,5854,177.06,0
3125,6909,275.34,0
3126,7517,374.52,0
3127,7328,464.92,0
3128,6469,535.88,0
3129,5396,578.10,0
3130,4748,587.09,0
3131,4829,566.44,0
3132,5610,528.29,0
3133,6724,489.77,0
3134,7531,466.73,0
3135,7588,467.74,0
3136,6865,490.92,0
3137,5761,524.89,0
3138,4839,553.92,0
3139,4586,564.88,0
3140,5083,552.43,0
3141,6084,519.85,0
3142,6987,475.76,0
3143,7258,428.97,0
3144,6693,383.77,0
3145,5574,337.92,0
3146,4496,284.26,0
3147,3992,215.66,0
3148,4276,130.52,0
3149,5194,35.00,0
3150,6233,-59.10,0
3151,6791,-139.64,0
3152,6545,-199.33,0
3153,5655,-238.67,0
3154,4607,-264.74,0
3155,3956,-286.35,0
3156,4028,-308.54,0
3157,4809,-330.02,0
3158,5905,-344.94,0
3159,6694,-347.03,0
3160,6723,-333.84,0
3161,5962,-309.22,0
3162,4838,-282.96,0
3163,3974,-267.10,0
3164,3833,-270.07,0
3165,4460,-291.81,0
3166,5567,-323.18,0
3167,6530,-350.14,0
3168,6801,-360.52,0
3169,6247,-350.09,0
3170,5171,-324.91,0
3171,4202,-298.23,0
3172,3818,-283.17,0
3173,4215,-285.36,0
3174,5214,-300.27,0
3175,6269,-316.46,0
3176,6765,-322.24,0
3177,6412,-312.38,0
3178,5341,-291.78,0
3179,4171,-274.27,0
3180,3494,-276.33,0
3181,3623,-308.48,0
3182,4523,-369.20,0
3183,5807,-444.64,0
3184,6867,-512.99,0
3185,7294,-550.58,0
3186,7098,-536.56,0
3187,6659,-454.81,0
3188,6413,-293.19,0
3189,6917,-42.39,0
3190,8155,303.55,0
3191,9853,745.15,0
3192,11016,1274.25,0
3193,11031,1868.45,0
3194,11003,2486.43,0
3195,10545,3074.95,0
3196,9360,3587.79,0
3197,8143,3996.92,0
3198,7256,4283.34,0
3199,6837,4420.73,0
3200,6644,4369.99,0
3201,6223,4089.86,0
3202,5299,3556.54,0
3203,4079,2781.00,0
3204,3010,1816.47,0
3205,2557,754.25,0
3206,2987,-290.52,0
3207,4119,-1200.19,0
3208,5480,-1877.65,0
3209,6399,-2265.73,0
3210,6492,-2357.74,0
3211,5756,-2196.68,0
3212,4655,-1862.99,0
3213,3847,-1453.92,0
3214,3720,-1060.00,0
3215,4326,-745.97,0
3216,5355,-542.13,0
3217,6251,-447.07,0
3218,6491,-438.09,0
3219,5928,-484.05,0
3220,4868,-556.39,0
3221,3913,-635.01,0
3222,3545,-708.30,0
3223,3962,-769.47,0
3224,4944,-813.19,0
3225,6006,-834.61,0
3226,6525,-830.83,0
3227,6222,-803.12,0
3228,5291,-758.59,0
3229,4283,-709.20,0
3230,3739,-667.48,0
3231,3952,-640.76,0
3232,4815,-627.76,0
3233,5935,-619.81,0
3234,6679,-605.69,0
3235,6653,-577.16,0
3236,5890,-533.04,0
3237,4817,-479.90,0
3238,4058,-428.85,0
3239,3974,-389.79,0
3240,4603,-366.52,0
3241,5642,-355.87,0
3242,6501,-350.76,0
3243,6690,-344.80,0
3244,6081,-336.09,0
3245,5016,-328.46,0
3246,4088,-329.35,0
3247,3789,-344.85,0
3248,4277,-374.75,0
3249,5319,-410.84,0
3250,6423,-439.63,0
3251,6953,-447.69,0
3252,6685,-427.03,0
3253,5762,-378.41,0
3254,4700,-311.15,0
3255,4083,-239.39,0
3256,4197,-176.88,0
3257,5017,-132.59,0
3258,6054,-109.14,0
3259,6699,-104.06,0
3260,6585,-112.96,0
3261,5781,-132.98,0
3262,4727,-163.93,0
3263,4013,-206.09,0
3264,4038,-256.44,0
3265,4807,-306.06,0
3266,5959,-341.26,0
3267,6842,-348.27,0
3268,6990,-319.46,0
3269,6303,-258.30,0
3270,5155,-180.18,0
3271,4190,-107.66,0
3272,3860,-61.88,0
3273,4322,-54.03,0
3274,5321,-81.79,0
3275,6346,-132.03,0
3276,6809,-187.37,0
3277,6460,-233.11,0
3278,5529,-261.86,0
3279,4579,-273.93,0
3280,4127,-273.55,0
3281,4439,-263.53,0
3282,5360,-242.26,0
3283,6476,-205.10,0
3284,7103,-148.60,0
3285,6914,-74.99,0
3286,6021,5.44,0
3287,4881,75.93,0
3288,4126,119.19,0
3289,4141,124.96,0
3290,4903,95.11,0
3291,6060,43.46,0
3292,6984,-9.59,0
3293,7186,-44.82,0
3294,6585,-50.89,0
3295,5537,-27.51,0
3296,4655,16.37,0
3297,4385,68.15,0
3298,4881,117.73,0
3299,5908,160.61,0
3300,6882,197.13,0
3301,7317,229.41,0
3302,6945,258.18,0
3303,5972,281.44,0
3304,4941,295.33,0
3305,4443,296.74,0
3306,4695,286.24,0
3307,5581,269.20,0
3308,6609,253.78,0
3309,7183,246.67,0
3310,6957,249.08,0
3311,6066,255.07,0
3312,4967,253.64,0
3313,4246,234.27,0
3314,4274,192.94,0
3315,5022,135.03,0
3316,6147,73.56,0
3317,7035,23.90,0
3318,7198,-2.12,0
3319,6575,-0.30,0
3320,5509,24.86,0
3321,4635,62.78,0
3322,4405,101.98,0
3323,4934,135.16,0
3324,5972,161.32,0
3325,6926,183.87,0
3326,7271,206.55,0
3327,6795,229.52,0
3328,5769,247.82,0
3329,4747,253.39,0
3330,4267,239.82,0
3331,4584,207.06,0
3332,5521,162.90,0
3333,6607,120.22,0
3334,7208,91.50,0
3335,6992,83.38,0
3336,6098,93.52,0
3337,5001,111.79,0
3338,4311,125.36,0
3339,4373,125.34,0
3340,5150,111.11,0
3341,6236,89.82,0
3342,7001,71.76,0
3343,6992,64.08,0
3344,6183,66.11,0
3345,4946,68.42,0
3346,3978,56.54,0
3347,3742,17.96,0
3348,4311,-50.94,0
3349,5408,-142.07,0
3350,6446,-238.48,0
3351,6833,-320.99,0
3352,6389,-375.32,0
3353,5388,-396.77,0
3354,4405,-390.28,0
3355,3945,-366.09,0
3356,4253,-334.02,0
3357,5162,-300.07,0
3358,6206,-266.61,0
3359,6763,-234.78,0
3360,6522,-207.05,0
3361,5606,-188.35,0
3362,4556,-184.94,0
3363,3927,-200.74,0
3364,4051,-233.35,0
3365,4884,-272.73,0
3366,6034,-304.27,0
3367,6863,-314.37,0
3368,6943,-295.83,0
3369,6231,-250.85,0
3370,5105,-190.29,0
3371,4211,-129.62,0
3372,4007,-82.95,0
3373,4588,-57.72,0
3374,5654,-52.81,0
3375,6644,-60.66,0
3376,7010,-71.66,0
3377,6554,-78.44,0
3378,5555,-78.28,0
3379,4586,-72.80,0
3380,4153,-65.06,0
3381,4494,-56.40,0
3382,5444,-45.25,0
3383,6496,-28.57,0
3384,7033,-4.71,0
3385,6756,24.19,0
3386,5819,51.33,0
3387,4738,67.17,0
3388,4111,63.90,0
3389,4247,40.29,0
3390,5085,3.67,0
3391,6233,-32.57,0
3392,7021,-54.54,0
3393,7027,-53.70,0
3394,6260,-30.59,0
3395,5111,5.13,0
3396,4251,38.99,0
3397,4111,58.39,0
3398,4741,58.38,0
3399,5855,43.35,0
3400,6828,23.91,0
3401,7125,11.17,0
3402,6599,11.40,0
3403,5542,23.42,0
3404,4565,40.05,0
3405,4189,53.06,0
3406,4598,58.44,0
3407,5588,58.68,0
3408,6619,60.56,0
3409,7098,70.24,0
3410,6747,88.45,0
3411,5739,108.61,0
3412,4635,119.02,0
3413,4015,108.73,0
3414,4186,73.90,0
3415,5037,20.92,0
3416,6170,-36.02,0
3417,6887,-81.32,0
3418,6823,-104.89,0
3419,6003,-106.58,0
3420,4849,-95.94,0
3421,4035,-87.08,0
3422,3971,-91.19,0
3423,4685,-110.54,0
3424,5837,-137.39,0
3425,6828,-158.29,0
3426,7111,-160.82,0
3427,6572,-139.43,0
3428,5500,-97.75,0
3429,4522,-46.56,0
3430,4157,1.71,0
3431,4624,38.82,0
3432,5656,63.91,0
3433,6713,82.30,0
3434,7178,100.98,0
3435,6785,123.25,0
3436,5731,145.49,0
3437,4577,158.08,0
3438,3948,150.28,0
3439,4119,116.69,0
3440,4983,61.13,0
3441,6096,-4.53,0
3442,6837,-65.67,0
3443,6795,-111.01,0
3444,6013,-136.50,0
3445,4887,-145.64,0
3446,4054,-146.34,0
3447,3957,-146.20,0
3448,4613,-148.84,0
3449,5692,-153.11,0
3450,6592,-155.37,0
3451,6800,-153.07,0
3452,6201,-147.31,0
3453,5101,-143.18,0
3454,4156,-147.33,0
3455,3868,-163.77,0
3456,4373,-190.00,0
3457,5450,-216.65,0
3458,6540,-231.16,0
3459,7018,-223.50,0
3460,6631,-191.24,0
3461,5591,-141.57,0
3462,4490,-89.16,0
3463,3891,-49.95,0
3464,4083,-34.13,0
3465,4970,-42.23,0
3466,6089,-66.28,0
3467,6811,-94.59,0
3468,6770,-117.22,0
3469,5956,-129.59,0
3470,4854,-132.97,0
3471,4057,-132.07,0
3472,3975,-131.18,0
3473,4633,-131.43,0
3474,5719,-130.88,0
3475,6599,-126.86,0
3476,6800,-118.60,0
3477,6220,-108.57,0
3478,5173,-101.75,0
3479,4276,-102.77,0
3480,4010,-112.45,0
3481,4554,-125.71,0
3482,5647,-132.63,0
3483,6724,-122.37,0
3484,7211,-88.08,0
3485,6861,-30.49,0
3486,5888,41.62,0
3487,4823,114.55,0
3488,4264,175.04,0
3489,4500,215.54,0
3490,5409,236.47,0
3491,6550,244.76,0
3492,7256,249.65,0
3493,7145,258.15,0
3494,6303,271.88,0
3495,5185,286.79,0
3496,4431,296.34,0
3497,4425,296.28,0
3498,5194,288.14,0
3499,6378,279.14,0
3500,7311,278.92,0
3501,7526,294.90,0
3502,6891,328.60,0
3503,5793,374.41,0
3504,4825,421.90,0
3505,4503,460.50,0
3506,4993,484.06,0
3507,6066,492.83,0
3508,7079,492.08,0
3509,7470,488.41,0
3510,6959,485.25,0
3511,5825,479.81,0
3512,4636,463.62,0
3513,4049,426.92,0
3514,4297,364.87,0
3515,5233,281.66,0
3516,6343,189.75,0
3517,6942,104.49,0
3518,6676,36.90,0
3519,5636,-11.73,0
3520,4389,-50.72,0
3521,3566,-94.92,0
3522,3547,-156.46,0
3523,4316,-237.87,0
3524,5496,-330.83,0
3525,6420,-420.14,0
3526,6604,-490.39,0
3527,5960,-531.90,0
3528,4871,-543.63,0
3529,3975,-531.79,0
3530,3712,-505.28,0
3531,4268,-471.01,0
3532,5363,-431.99,0
3533,6422,-388.40,0
3534,6848,-340.19,0
3535,6421,-289.53,0
3536,5348,-241.90,0
3537,4297,-204.96,0
3538,3759,-185.10,0
3539,4023,-183.66,0
3540,4955,-195.85,0
3541,6100,-213.03,0
3542,6765,-226.49,0
3543,6582,-230.99,0
3544,5652,-226.89,0
3545,4487,-220.03,0
3546,3715,-218.66,0
3547,3697,-228.64,0
3548,4434,-250.34,0
3549,5562,-278.88,0
3550,6437,-307.15,0
3551,6557,-329.36,0
3552,5897,-343.44,0
3553,4884,-351.22,0
3554,4255,-355.22,0
3555,4502,-352.53,0
3556,5715,-329.02,0
3557,7510,-258.25,0
3558,9213,-107.34,0
3559,10226,152.23,0
3560,10299,533.70,0
3561,9749,1028.86,0
3562,9145,1609.54,0
3563,8961,2235.81,0
3564,9262,2865.36,0
3565,9827,3457.89,0
3566,10200,3972.70,0
3567,9795,4364.03,0
3568,8368,4580.07,0
3569,6313,4568.59,0
3570,4258,4289.35,0
3571,2953,3730.36,0
3572,2721,2921.27,0
3573,3481,1936.36,0
3574,4737,883.77,0
3575,5765,-116.19,0
3576,5998,-956.24,0
3577,5372,-1563.36,0
3578,4365,-1910.30,0
3579,3605,-2014.26,0
3580,3559,-1924.23,0
3581,4308,-1703.40,0
3582,5531,-1413.87,0
3583,6593,-1107.33,0
3584,6900,-822.02,0
3585,6282,-584.03,0
3586,5047,-410.21,0
3587,3932,-309.88,0
3588,3489,-283.64,0
3589,3942,-320.71,0
3590,5058,-398.74,0
3591,6256,-488.30,0
3592,6856,-561.01,0
3593,6520,-598.12,0
3594,5428,-596.08,0
3595,4199,-566.48,0
3596,3462,-529.70,0
3597,3568,-505.09,0
3598,4448,-503.07,0
3599,5675,-522.67,0
3600,6543,-554.38,0
3601,6582,-585.79,0
3602,5768,-607.41,0
3603,4585,-616.27,0
3604,3726,-615.44,0
3605,3630,-609.72,0
3606,4393,-600.78,0
3607,5655,-585.00,0
3608,6752,-555.34,0
3609,7071,-505.73,0
3610,6451,-435.78,0
3611,5233,-353.57,0
3612,4129,-274.30,0
3613,3679,-214.42,0
3614,4093,-184.36,0
3615,5170,-184.45,0
3616,6338,-205.88,0
3617,6921,-235.46,0
3618,6608,-261.45,0
3619,5589,-277.97,0
3620,4428,-286.02,0
3621,3752,-290.52,0
3622,3918,-295.55,0
3623,4802,-301.21,0
3624,5967,-303.98,0
3625,6782,-299.88,0
3626,6798,-287.69,0
3627,6002,-270.16,0
3628,4862,-252.79,0
3629,4038,-240.79,0
3630,3943,-235.58,0
3631,4646,-233.11,0
3632,5796,-225.78,0
3633,6750,-206.79,0
3634,6990,-174.49,0
3635,6341,-134.30,0
3636,5152,-97.43,0
3637,4119,-76.69,0
3638,3743,-80.53,0
3639,4256,-108.29,0
3640,5394,-149.52,0
3641,6574,-188.00,0
3642,7133,-208.31,0
3643,6780,-202.14,0
3644,5719,-171.57,0
3645,4516,-127.91,0
3646,3834,-86.42,0
3647,4023,-59.51,0
3648,4961,-51.75,0
3649,6210,-59.23,0
3650,7048,-72.58,0
3651,7036,-81.84,0
3652,6197,-80.95,0
3653,5008,-69.81,0
3654,4151,-53.00,0
3655,4096,-35.74,0
3656,4836,-19.92,0
3657,6077,-2.95,0
3658,7135,20.25,0
3659,7454,54.04,0
3660,6907,99.44,0
3661,5797,153.17,0
3662,4758,209.04,0
3663,4348,260.66,0
3664,4778,303.99,0
3665,5801,338.00,0
3666,6834,363.29,0
3667,7275,379.49,0
3668,6842,383.45,0
3669,5764,369.43,0
3670,4625,331.82,0
3671,4015,269.43,0
3672,4263,188.92,0
3673,5254,104.56,0
3674,6533,34.21,0
3675,7360,-6.50,0
3676,7327,-9.26,0
3677,6478,24.17,0
3678,5285,82.64,0
3679,4447,150.10,0
3680,4357,211.88,0
3681,5063,259.49,0
3682,6207,291.42,0
3683,7119,310.34,0
3684,7295,319.09,0
3685,6593,317.78,0
3686,5407,303.36,0
3687,4392,271.97,0
3688,4045,223.06,0
3689,4546,162.29,0
3690,5657,100.89,0
3691,6760,51.51,0
3692,7268,23.21,0
3693,6898,17.97,0
3694,5888,30.39,0
3695,4817,50.74,0
3696,4307,70.41,0
3697,4634,86.65,0
3698,5642,104.08,0
3699,6864,131.44,0
3700,7604,175.96,0
3701,7455,238.36,0
3702,6470,310.67,0
3703,5169,377.71,0
3704,4275,422.10,0
3705,4175,431.14,0
3706,4929,402.07,0
3707,6144,342.99,0
3708,7113,269.22,0
3709,7319,197.44,0
3710,6651,139.87,0
3711,5499,101.10,0
3712,4500,78.98,0
3713,4168,68.49,0
3714,4666,65.79,0
3715,5756,69.63,0
3716,6808,79.92,0
3717,7227,95.20,0
3718,6747,110.69,0
3719,5647,118.26,0
3720,4523,109.09,0
3721,3981,78.31,0
3722,4277,29.05,0
3723,5259,-27.44,0
3724,6437,-76.11,0
3725,7112,-104.70,0
3726,6938,-108.97,0
3727,6017,-94.43,0
3728,4854,-73.48,0
3729,4087,-59.02,0
3730,4117,-57.98,0
3731,4913,-68.31,0
3732,6105,-81.11,0
3733,7005,-86.21,0
3734,7095,-77.91,0
3735,6328,-58.38,0
3736,5097,-37.30,0
3737,4099,-27.52,0
3738,3829,-38.49,0
3739,4438,-70.88,0
3740,5585,-115.80,0
3741,6713,-158.86,0
3742,7176,-186.62,0
3743,6724,-191.98,0
3744,5647,-176.45,0
3745,4565,-148.53,0
3746,4071,-118.44,0
3747,4449,-92.31,0
3748,5502,-69.22,0
3749,6733,-42.85,0
3750,7389,-6.29,0
3751,7174,42.72,0
3752,6182,98.69,0
3753,4938,149.55,0
3754,4119,181.80,0
3755,4114,186.78,0
3756,4903,164.54,0
3757,6103,123.30,0
3758,6995,75.28,0
3759,7107,31.46,0
3760,6404,-2.36,0
3761,5276,-26.32,0
3762,4380,-43.67,0
3763,4173,-56.27,0
3764,4789,-61.84,0
3765,5938,-54.79,0
3766,6981,-30.16,0
3767,7337,12.27,0
3768,6804,65.65,0
3769,5642,117.01,0
3770,4498,151.29,0
3771,3968,157.30,0
3772,4287,132.68,0
3773,5278,84.97,0
3774,6442,27.95,0
3775,7079,-24.37,0
3776,6863,-63.14,0
3777,5932,-87.05,0
3778,4804,-100.91,0
3779,4120,-110.93,0
3780,4233,-119.56,0
3781,5096,-123.41,0
3782,6303,-115.48,0
3783,7175,-89.93,0
3784,7227,-46.54,0
3785,6434,7.55,0
3786,5211,59.39,0
3787,4250,94.92,0
3788,4049,105.00,0
3789,4664,89.64,0
3790,5813,57.81,0
3791,6833,22.80,0
3792,7161,-4.16,0
3793,6595,-18.73,0
3794,5446,-24.79,0
3795,4338,-31.49,0
3796,3851,-47.56,0
3797,4209,-76.02,0
3798,5230,-112.52,0
3799,6365,-148.11,0
3800,6977,-174.39,0
3801,6730,-187.74,0
3802,5762,-190.90,0
3803,4627,-190.97,0
3804,3962,-194.82,0
3805,4119,-204.28,0
3806,5037,-214.20,0
3807,6269,-214.82,0
3808,7116,-197.02,0
3809,7124,-157.66,0
3810,6331,-102.36,0
3811,5155,-44.01,0
3812,4282,2.92,0
3813,4138,29.36,0
3814,4804,35.87,0
3815,5969,31.46,0
3816,6961,28.14,0
3817,7217,34.40,0
3818,6575,50.63,0
3819,5346,68.40,0
3820,4210,74.18,0
3821,3706,56.01,0
3822,4104,9.79,0
3823,5185,-58.39,0
3824,6423,-134.47,0
3825,7120,-201.60,0
3826,6920,-245.66,0
3827,5989,-259.37,0
3828,4829,-243.66,0
3829,4097,-205.70,0
3830,4159,-155.20,0
3831,4966,-101.37,0
3832,6099,-51.67,0
3833,6860,-12.27,0
3834,6808,11.10,0
3835,5976,12.71,0
3836,4773,-12.02,0
3837,3875,-63.89,0
3838,3733,-137.18,0
3839,4436,-219.14,0
3840,5660,-292.88,0
3841,6723,-342.42,0
3842,7049,-357.90,0
3843,6481,-338.90,0
3844,5348,-294.67,0
3845,4311,-240.35,0
3846,3899,-190.53,0
3847,4332,-153.41,0
3848,5391,-128.94,0
3849,6570,-111.44,0
3850,7168,-94.12,0
3851,6870,-72.99,0
3852,5858,-48.93,0
3853,4697,-27.02,0
3854,4036,-13.17,0
3855,4190,-9.87,0
3856,5073,-14.08,0
3857,6233,-19.01,0
3858,6975,-18.50,0
3859,6871,-11.24,0
3860,5973,-2.69,0
3861,4760,-3.33,0
3862,3910,-23.23,0
3863,3825,-65.73,0
3864,4558,-124.03,0
3865,5765,-183.31,0
3866,6772,-227.08,0
3867,7014,-244.15,0
3868,6362,-233.30,0
3869,5171,-203.81,0
3870,4130,-171.24,0
3871,3764,-150.03,0
3872,4271,-146.62,0
3873,5393,-157.12,0
3874,6555,-170.54,0
3875,7113,-175.05,0
3876,6778,-163.92,0
3877,5748,-138.38,0
3878,4596,-106.28,0
3879,3950,-77.41,0
3880,4137,-58.14,0
3881,5070,-48.63,0
3882,6292,-43.86,0
3883,7093,-37.16,0
3884,7058,-24.09,0
3885,6247,-4.78,0
3886,5131,16.49,0
3887,4342,34.80,0
3888,4349,49.00,0
3889,5131,63.87,0
3890,6377,88.33,0
3891,7381,130.79,0
3892,7614,194.14,0
3893,6953,273.09,0
3894,5791,354.77,0
3895,4748,423.35,0
3896,4386,466.62,0
3897,4875,481.05,0
3898,5997,472.71,0
3899,7120,453.64,0
3900,7628,436.14,0
3901,7245,427.61,0
3902,6207,428.02,0
3903,5077,431.57,0
3904,4519,431.53,0
3905,4822,425.58,0
3906,5816,418.28,0
3907,6976,418.81,0
3908,7660,434.98,0
3909,7467,467.33,0
3910,6483,506.63,0
3911,5158,536.52,0
3912,4234,539.80,0
3913,4117,505.66,0
3914,4822,434.35,0
3915,5964,336.79,0
3916,6874,229.51,0
3917,7038,127.92,0
3918,6330,41.08,0
3919,5123,-29.96,0
3920,4097,-89.89,0
3921,3754,-144.23,0
3922,4297,-194.73,0
3923,5481,-237.81,0
3924,6678,-266.31,0
3925,7226,-273.11,0
3926,6859,-255.00,0
3927,5814,-215.19,0
3928,4665,-162.70,0
3929,4038,-108.82,0
3930,4245,-62.63,0
3931,5128,-28.51,0
3932,6234,-6.97,0
3933,6872,2.49,0
3934,6678,-1.41,0
3935,5728,-22.44,0
3936,4539,-65.08,0
3937,3758,-130.57,0
3938,3787,-212.99,0
3939,4632,-298.49,0
3940,5890,-368.74,0
3941,6885,-407.19,0
3942,7090,-404.98,0
3943,6431,-364.20,0
3944,5252,-297.01,0
3945,4210,-221.07,0
3946,3818,-153.40,0
3947,4283,-105.45,0
3948,5362,-81.52,0
3949,6432,-79.94,0
3950,6871,-95.80,0
3951,6498,-123.87,0
3952,5603,-159.73,0
3953,4820,-197.84,0
3954,4757,-226.89,0
3955,5685,-225.90,0
3956,7364,-164.67,0
3957,9224,-10.06,0
3958,10579,263.86,0
3959,10952,666.35,0
3960,10616,1185.12,0
3961,9852,1788.73,0
3962,9132,2434.29,0
3963,8797,3074.49,0
3964,8942,3659.49,0
3965,9239,4135.96,0
3966,9115,4448.27,0
3967,8213,4544.20,0
3968,6571,4384.52,0
3969,4658,3953.90,0
3970,3189,3270.01,0
3971,2651,2387.24,0
3972,3161,1392.21,0
3973,4387,390.42,0
3974,5689,-512.85,0
3975,6349,-1231.68,0
3976,6080,-1713.93,0
3977,5097,-1948.13,0
3978,4090,-1961.27,0
3979,3640,-1807.78,0
3980,4026,-1553.31,0
3981,5088,-1259.42,0
3982,6305,-973.96,0
3983,6985,-728.12,0
3984,6760,-538.37,0
3985,5788,-410.83,0
3986,4598,-344.77,0
3987,3852,-333.49,0
3988,3942,-363.62,0
3989,4794,-415.60,0
3990,6007,-467.32,0
3991,6888,-500.15,0
3992,6972,-504.46,0
3993,6203,-482.12,0
3994,4988,-444.74,0
3995,4027,-408.21,0
3996,3791,-385.65,0
3997,4413,-381.95,0
3998,5596,-392.77,0
3999,6719,-407.73,0
4000,7150,-415.69,0
4001,6654,-409.50,0
4002,5529,-388.98,0
4003,4425,-360.42,0
4004,3932,-332.66,0
4005,4304,-311.69,0
4006,5349,-297.61,0
4007,6544,-285.54,0
4008,7198,-269.38,0
4009,6920,-246.10,0
4010,5868,-218.62,0
4011,4616,-195.72,0
4012,3850,-188.20,0
4013,3961,-202.73,0
4014,4851,-237.24,0
4015,6133,-280.97,0
4016,7107,-318.85,0
4017,7255,-337.41,0
4018,6529,-329.50,0
4019,5330,-296.41,0
4020,4373,-246.49,0
4021,4143,-190.87,0
4022,4752,-138.68,0
4023,5884,-94.58,0
4024,6883,-59.56,0
4025,7165,-33.87,0
4026,6525,-19.96,0
4027,5304,-23.60,0
4028,4186,-51.86,0
4029,3722,-108.21,0
4030,4165,-187.77,0
4031,5298,-276.21,0
4032,6565,-353.72,0
4033,7250,-401.75,0
4034,7047,-409.52,0
4035,6113,-377.49,0
4036,5014,-316.05,0
4037,4405,-239.68,0
4038,4603,-159.85,0
4039,5551,-80.77,0
4040,6786,-0.45,0
4041,7597,84.43,0
4042,7529,173.04,0
4043,6632,257.17,0
4044,5372,322.43,0
4045,4442,354.09,0
4046,4289,344.71,0
4047,5019,299.01,0
4048,6285,233.17,0
4049,7376,169.05,0
4050,7704,126.22,0
4051,7104,114.95,0
4052,5929,132.95,0
4053,4835,167.80,0
4054,4427,203.99,0
4055,4887,230.69,0
4056,5991,245.96,0
4057,7129,255.11,0
4058,7682,265.29,0
4059,7340,279.74,0
4060,6276,295.08,0
4061,5066,302.94,0
4062,4391,295.02,0
4063,4573,268.64,0
4064,5556,229.61,0
4065,6872,190.58,0
4066,7788,166.17,0
4067,7834,167.31,0
4068,6991,196.81,0
4069,5739,248.10,0
4070,4768,307.75,0
4071,4581,361.03,0
4072,5245,397.48,0
4073,6462,413.75,0
4074,7541,413.01,0
4075,7951,402.34,0
4076,7486,389.76,0
4077,6461,382.28,0
4078,5458,385.29,0
4079,5041,403.00,0
4080,5445,438.23,0
4081,6458,491.16,0
4082,7505,557.44,0
4083,7947,627.04,0
4084,7502,684.93,0
4085,6349,713.85,0
4086,5058,699.01,0
4087,4293,633.29,0
4088,4425,520.86,0
4089,5381,377.37,0
4090,6694,226.24,0
4091,7630,92.68,0
4092,7689,-2.68,0
4093,6843,-49.05,0
4094,5568,-48.10,0
4095,4561,-12.63,0
4096,4319,38.35,0
4097,4944,86.01,0
4098,6115,116.48,0
4099,7162,123.19,0
4100,7491,106.54,0
4101,6963,71.99,0
4102,5903,27.59,0
4103,4917,-17.46,0
4104,4614,-53.02,0
4105,5135,-68.31,0
4106,6234,-53.80,0
4107,7286,-5.20,0
4108,7703,72.38,0
4109,7216,162.85,0
4110,6016,241.97,0
4111,4685,284.17,0
4112,3874,270.79,0
4113,3951,196.15,0
4114,4880,69.19,0
4115,6208,-89.26,0
4116,7203,-251.79,0
4117,7325,-390.45,0
4118,6577,-482.97,0
4119,5360,-517.80,0
4120,4363,-496.42,0
4121,4067,-432.03,0
4122,4585,-345.82,0
4123,5625,-262.26,0
4124,6568,-204.14,0
4125,6813,-187.86,0
4126,6194,-220.27,0
4127,5045,-298.07,0
4128,4021,-409.11,0
4129,3648,-534.66,0
4130,4137,-652.56,0
4131,5266,-741.87,0
4132,6477,-787.94,0
4133,7126,-785.83,0
4134,6892,-740.51,0
4135,5922,-664.28,0
4136,4790,-572.71,0
4137,4139,-480.14,0
4138,4300,-396.28,0
4139,5185,-325.14,0
4140,6360,-266.87,0
4141,7122,-220.76,0
4142,7027,-187.62,0
4143,6128,-170.58,0
4144,4910,-173.97,0
4145,4061,-200.20,0
4146,3986,-246.11,0
4147,4712,-301.56,0
4148,5881,-352.39,0
4149,6836,-386.15,0
4150,7016,-397.44,0
4151,6314,-390.28,0
4152,5083,-376.61,0
4153,4029,-371.22,0
4154,3740,-384.74,0
4155,4356,-417.69,0
4156,5578,-459.04,0
4157,6768,-490.78,0
4158,7295,-496.22,0
4159,6873,-467.88,0
4160,5738,-411.23,0
4161,4513,-342.49,0
4162,3870,-281.51,0
4163,4147,-243.17,0
4164,5179,-231.35,0
4165,6487,-238.64,0
4166,7328,-250.91,0
4167,7277,-254.18,0
4168,6389,-240.53,0
4169,5185,-210.53,0
4170,4353,-171.04,0
4171,4302,-129.99,0
4172,5047,-91.94,0
4173,6230,-57.26,0
4174,7152,-24.75,0
4175,7318,4.97,0
4176,6644,27.72,0
4177,5514,36.93,0
4178,4593,27.90,0
4179,4378,2.60,0
4180,5013,-28.08,0
4181,6229,-47.11,0
4182,7326,-38.09,0
4183,7669,6.84,0
4184,6981,81.29,0
4185,5549,163.45,0
4186,4102,221.06,0
4187,3317,221.96,0
4188,3508,146.42,0
4189,4491,-4.66,0
4190,5733,-209.92,0
4191,6558,-435.21,0
4192,6529,-644.52,0
4193,5728,-809.33,0
4194,4674,-913.24,0
4195,4001,-951.40,0
4196,4072,-926.50,0
4197,4871,-845.60,0
4198,6037,-719.89,0
4199,6852,-566.29,0
4200,6833,-408.11,0
4201,5962,-273.08,0
4202,4638,-188.41,0
4203,3576,-173.27,0
4204,3283,-231.77,0
4205,3914,-349.91,0
4206,5146,-498.78,0
4207,6385,-643.13,0
4208,6963,-751.40,0
4209,6610,-803.54,0
4210,5577,-794.57,0
4211,4487,-733.16,0
4212,3961,-636.09,0
4213,4276,-521.33,0
4214,5290,-403.15,0
4215,6477,-291.11,0
4216,7134,-191.80,0
4217,6885,-111.46,0
4218,5832,-57.51,0
4219,4542,-37.82,0
4220,3704,-57.39,0
4221,3705,-114.09,0
4222,4523,-196.72,0
4223,5757,-287.62,0
4224,6695,-368.43,0
4225,6800,-426.12,0
4226,6023,-456.94,0
4227,4784,-466.72,0
4228,3777,-467.02,0
4229,3501,-468.81,0
4230,4089,-477.24,0
4231,5215,-490.45,0
4232,6282,-502.85,0
4233,6661,-509.92,0
4234,6160,-511.71,0
4235,5036,-513.18,0
4236,3967,-521.20,0
4237,3464,-539.48,0
4238,3797,-564.99,0
4239,4822,-588.66,0
4240,6019,-600.00,0
4241,6716,-592.39,0
4242,6557,-566.02,0
4243,5656,-527.48,0
4244,4533,-486.41,0
4245,3797,-450.50,0
4246,3831,-421.85,0
4247,4662,-396.86,0
4248,5870,-369.49,0
4249,6805,-335.33,0
4250,6951,-294.12,0
4251,6222,-249.94,0
4252,4991,-209.65,0
4253,3957,-180.44,0
4254,3613,-167.15,0
4255,4113,-170.73,0
4256,5186,-188.75,0
4257,6205,-217.49,0
4258,6583,-254.01,0
4259,6129,-297.05,0
4260,5108,-346.14,0
4261,4121,-399.10,0
4262,3713,-449.38,0
4263,4140,-485.47,0
4264,5197,-493.87,0
4265,6362,-464.86,0
4266,6939,-397.89,0
4267,6619,-304.12,0
4268,5541,-204.76,0
4269,4288,-125.08,0
4270,3465,-86.02,0
4271,3473,-96.87,0
4272,4271,-152.85,0
4273,5454,-238.45,0
4274,6379,-333.96,0
4275,6520,-421.69,0
4276,5831,-489.70,0
4277,4732,-532.67,0
4278,3861,-550.12,0
4279,3688,-543.24,0
4280,4327,-512.79,0
4281,5455,-459.66,0
4282,6457,-387.36,0
4283,6752,-304.36,0
4284,6174,-224.25,0
4285,5024,-163.18,0
4286,3965,-134.70,0
4287,3529,-143.94,0
4288,3945,-184.17,0
4289,4995,-238.56,0
4290,6159,-286.84,0
4291,6761,-313.29,0
4292,6481,-312.29,0
4293,5464,-289.53,0
4294,4309,-258.45,0
4295,3611,-233.34,0
4296,3718,-222.42,0
4297,4550,-224.87,0
4298,5722,-233.44,0
4299,6574,-239.95,0
4300,6666,-239.73,0
4301,5975,-232.94,0
4302,4871,-222.65,0
4303,3991,-211.51,0
4304,3785,-199.22,0
4305,4362,-182.61,0
4306,5432,-158.34,0
4307,6416,-126.39,0
4308,6739,-91.56,0
4309,6218,-62.23,0
4310,5155,-47.16,0
4311,4143,-51.53,0
4312,3684,-73.83,0
4313,4042,-105.61,0
4314,5032,-134.89,0
4315,6162,-151.45,0
4316,6791,-150.80,0
4317,6604,-134.94,0
4318,5744,-110.23,0
4319,4753,-83.34,0
4320,4218,-56.76,0
4321,4441,-26.26,0
4322,5326,17.63,0
4323,6477,83.95,0
4324,7234,174.88,0
4325,7187,282.28,0
4326,6350,388.89,0
4327,5193,473.90,0
4328,4333,520.84,0
4329,4210,524.42,0
4330,4876,492.77,0
4331,5977,443.54,0
4332,6915,395.88,0
4333,7147,362.59,0
4334,6567,346.01,0
4335,5452,339.13,0
4336,4442,331.07,0
4337,4011,313.75,0
4338,4423,286.24,0
4339,5436,254.45,0
4340,6526,227.08,0
4341,7051,210.61,0
4342,6720,205.80,0
4343,5692,207.07,0
4344,4527,204.98,0
4345,3842,190.89,0
4346,3983,161.49,0
4347,4825,120.56,0
4348,5948,76.74,0
4349,6692,38.69,0
4350,6647,10.71,0
4351,5858,-8.98,0
4352,4761,-26.31,0
4353,3988,-46.63,0
4354,3931,-70.03,0
4355,4632,-89.79,0
4356,5745,-95.66,0
4357,6636,-79.97,0
4358,6796,-42.98,0
4359,6100,5.14,0
4360,4928,46.97,0
4361,3937,64.46,0
4362,3640,47.27,0
4363,4194,-1.43,0
4364,5329,-65.19,0
4365,6485,-120.94,0
4366,7038,-148.34,0
4367,6692,-137.51,0
4368,5638,-92.07,0
4369,4468,-26.90,0
4370,3767,38.34,0
4371,3865,86.74,0
4372,4612,108.75,0
4373,5616,102.09,0
4374,6282,68.34,0
4375,6196,10.08,0
4376,5396,-69.78,0
4377,4387,-166.39,0
4378,3765,-270.22,0
4379,3957,-364.72,0
4380,5010,-426.84,0
4381,6633,-431.15,0
4382,8099,-355.34,0
4383,8898,-185.02,0
4384,8899,83.48,0
4385,8380,443.10,0
4386,7970,878.99,0
4387,8158,1373.13,0
4388,9059,1908.13,0
4389,10274,2467.52,0
4390,10978,3031.15,0
4391,10902,3567.14,0
4392,9867,4026.97,0
4393,7917,4350.07,0
4394,5820,4476.63,0
4395,4324,4362.34,0
4396,3932,3991.17,0
4397,4420,3383.66,0
4398,5298,2596.84,0
4399,5948,1714.29,0
4400,5914,829.49,0
4401,5227,28.82,0
4402,4312,-621.07,0
4403,3719,-1079.47,0
4404,3817,-1332.44,0
4405,4608,-1390.60,0
4406,5791,-1285.88,0
4407,6690,-1066.45,0
4408,6818,-789.36,0
4409,6063,-511.99,0
4410,4853,-283.56,0
4411,3856,-137.56,0
4412,3531,-86.10,0
4413,4012,-118.83,0
4414,5035,-208.51,0
4415,6069,-321.54,0
4416,6512,-428.82,0
4417,6118,-512.53,0
4418,5124,-567.55,0
4419,4140,-597.82,0
4420,3692,-609.78,0
4421,4036,-606.28,0
4422,5019,-584.80,0
4423,6180,-540.69,0
4424,6891,-472.42,0
4425,6808,-385.03,0
4426,6004,-289.88,0
4427,4950,-200.64,0
4428,4257,-127.70,0
4429,4287,-73.78,0
4430,5042,-33.38,0
4431,6170,3.24,0
4432,7058,44.30,0
4433,7238,92.30,0
4434,6589,143.25,0
4435,5457,188.91,0
4436,4493,220.73,0
4437,4156,233.70,0
4438,4594,228.47,0
4439,5557,210.02,0
4440,6510,184.07,0
4441,6880,153.59,0
4442,6435,117.68,0
4443,5386,72.82,0
4444,4345,15.90,0
4445,3872,-52.13,0
4446,4248,-123.72,0
4447,5304,-185.19,0
4448,6526,-220.63,0
4449,7238,-217.81,0
4450,7079,-173.49,0
4451,6156,-95.85,0
4452,4981,-2.67,0
4453,4212,84.80,0
4454,4239,149.68,0
4455,5050,185.15,0
4456,6224,195.28,0
4457,7098,191.01,0
4458,7214,183.88,0
4459,6508,180.56,0
4460,5364,180.98,0
4461,4451,180.52,0
4462,4269,174.93,0
4463,4864,164.90,0
4464,5997,156.84,0
4465,7023,159.48,0
4466,7407,178.57,0
4467,6926,213.00,0
4468,5890,254.46,0
4469,4838,291.00,0
4470,4365,312.93,0
4471,4694,317.69,0
4472,5692,310.71,0
4473,6840,302.19,0
4474,7503,301.89,0
4475,7316,314.74,0
4476,6424,338.83,0
4477,5330,366.83,0
4478,4637,390.53,0
4479,4713,405.69,0
4480,5503,414.33,0
4481,6620,422.72,0
4482,7396,436.65,0
4483,7379,456.84,0
4484,6567,476.83,0
4485,5393,484.74,0
4486,4516,468.80,0
4487,4355,424.39,0
4488,5007,358.20,0
4489,6183,286.72,0
4490,7260,229.81,0
4491,7668,203.22,0
4492,7222,213.15,0
4493,6192,254.84,0
4494,5142,315.57,0
4495,4657,380.44,0
4496,4981,437.93,0
4497,5937,482.56,0
4498,6995,514.00,0
4499,7562,533.81,0
4500,7307,542.29,0
4501,6370,537.22,0
4502,5275,515.45,0
4503,4618,476.38,0
4504,4758,425.31,0
4505,5631,373.83,0
4506,6796,336.38,0
4507,7627,324.60,0
4508,7697,342.30,0
4509,6968,383.78,0
4510,5830,436.11,0
4511,4885,484.29,0
4512,4645,516.62,0
4513,5214,528.05,0
4514,6315,520.48,0
4515,7296,500.32,0
4516,7647,474.98,0
4517,7185,449.73,0
4518,6161,426.51,0
4519,5146,405.16,0
4520,4681,385.81,0
4521,5021,370.43,0
4522,5987,362.45,0
4523,7025,364.60,0
4524,7550,376.24,0
4525,7234,391.78,0
4526,6250,401.26,0
4527,5137,393.65,0
4528,4514,362.15,0
4529,4713,308.85,0
4530,5644,245.98,0
4531,6869,192.16,0
4532,7718,165.32,0
4533,7741,175.64,0
4534,6951,221.30,0
4535,5782,289.12,0
4536,4863,359.80,0
4537,4670,415.54,0
4538,5269,446.09,0
4539,6342,450.61,0
4540,7250,434.90,0
4541,7506,406.47,0
4542,6942,370.25,0
4543,5865,327.24,0
4544,4864,276.60,0
4545,4487,219.39,0
4546,4900,161.35,0
4547,5898,112.38,0
4548,6931,82.28,0
4549,7405,75.54,0
4550,7035,87.90,0
4551,6016,106.78,0
4552,4895,115.89,0
4553,4319,102.41,0
4554,4583,63.75,0
4555,5518,9.95,0
4556,6665,-40.33,0
4557,7405,-68.71,0
4558,7263,-65.88,0
4559,6368,-36.38,0
4560,5155,3.13,0
4561,4297,31.44,0
4562,4195,32.64,0
4563,4887,3.04,0
4564,6043,-48.38,0
4565,7002,-105.37,0
4566,7290,-152.02,0
4567,6766,-178.87,0
4568,5764,-184.66,0
4569,4849,-173.73,0
4570,4569,-151.00,0
4571,5071,-118.00,0
4572,6110,-72.53,0
4573,7116,-11.95,0
4574,7526,61.90,0
4575,7093,139.53,0
4576,6045,204.81,0
4577,4928,240.21,0
4578,4367,234.46,0
4579,4617,188.54,0
4580,5570,116.78,0
4581,6724,41.77,0
4582,7429,-14.57,0
4583,7296,-39.42,0
4584,6417,-33.60,0
4585,5244,-9.99,0
4586,4436,13.44,0
4587,4394,22.51,0
4588,5125,12.94,0
4589,6283,-9.27,0
4590,7207,-32.51,0
4591,7398,-46.27,0
4592,6759,-46.46,0
4593,5688,-36.83,0
4594,4780,-25.64,0
4595,4563,-19.30,0
4596,5189,-17.12,0
4597,6368,-10.27,0
4598,7479,14.05,0
4599,7919,65.62,0
4600,7446,144.52,0
4601,6295,238.44,0
4602,5043,325.64,0
4603,4316,382.43,0
4604,4422,391.61,0
4605,5236,347.97,0
4606,6343,258.59,0
4607,7074,138.99,0
4608,7023,8.03,0
4609,6247,-116.91,0
4610,5203,-222.66,0
4611,4522,-300.33,0
4612,4599,-343.54,0
4613,5382,-347.17,0
4614,6523,-308.55,0
4615,7372,-230.78,0
4616,7464,-125.44,0
4617,6710,-12.54,0
4618,5527,83.39,0
4619,4531,140.22,0
4620,4221,145.88,0
4621,4721,102.76,0
4622,5805,26.44,0
4623,6891,-60.65,0
4624,7388,-137.04,0
4625,7045,-188.29,0
4626,6088,-209.52,0
4627,5033,-204.15,0
4628,4491,-179.84,0
4629,4757,-144.15,0
4630,5701,-101.94,0
4631,6801,-55.55,0
4632,7434,-7.00,0
4633,7230,39.26,0
4634,6282,75.08,0
4635,5069,90.08,0
4636,4239,75.71,0
4637,4193,29.68,0
4638,4945,-41.69,0
4639,6148,-124.80,0
4640,7132,-202.86,0
4641,7357,-260.78,0
4642,6725,-289.40,0
4643,5637,-287.75,0
4644,4688,-262.18,0
4645,4389,-222.38,0
4646,4887,-177.15,0
4647,5922,-132.34,0
4648,6892,-91.51,0
4649,7244,-58.12,0
4650,6778,-37.30,0
4651,5717,-35.61,0
4652,4659,-58.36,0
4653,4175,-105.70,0
4654,4527,-169.76,0
4655,5569,-235.29,0
4656,6801,-283.89,0
4657,7550,-300.09,0
4658,7422,-276.55,0
4659,6523,-216.88,0
4660,5333,-134.68,0
4661,4517,-48.94,0
4662,4476,22.57,0
4663,5174,68.67,0
4664,6236,86.28,0
4665,7015,78.16,0
4666,7078,48.77,0
4667,6353,1.39,0
4668,5224,-62.34,0
4669,4347,-140.08,0
4670,4162,-225.53,0
4671,4801,-306.75,0
4672,5966,-368.07,0
4673,7016,-395.21,0
4674,7365,-381.22,0
4675,6853,-330.48,0
4676,5765,-258.65,0
4677,4686,-187.45,0
4678,4200,-136.28,0
4679,4551,-114.79,0
4680,5568,-120.16,0
4681,6717,-140.08,0
4682,7356,-159.43,0
4683,7154,-167.22,0
4684,6232,-160.76,0
4685,5096,-145.30,0
4686,4387,-129.62,0
4687,4461,-120.18,0
4688,5246,-117.50,0
4689,6353,-116.97,0
4690,7139,-113.09,0
4691,7216,-104.03,0
4692,6510,-93.37,0
4693,5390,-88.13,0
4694,4493,-94.61,0
4695,4276,-114.41,0
4696,4834,-142.86,0
4697,5913,-171.03,0
4698,6892,-190.09,0
4699,7248,-195.49,0
4700,6775,-188.92,0
4701,5760,-177.23,0
4702,4795,-168.59,0
4703,4423,-167.44,0
4704,4855,-170.90,0
4705,5877,-169.38,0
4706,6932,-151.47,0
4707,7435,-110.95,0
4708,7095,-51.91,0
4709,6095,10.86,0
4710,4954,57.31,0
4711,4301,70.83,0
4712,4453,46.24,0
4713,5336,-7.39,0
4714,6520,-70.58,0
4715,7314,-121.82,0
4716,7324,-146.35,0
4717,6503,-141.65,0
4718,5337,-117.32,0
4719,4489,-89.52,0
4720,4427,-72.15,0
4721,5195,-69.36,0
4722,6460,-73.48,0
4723,7546,-69.22,0
4724,7890,-41.64,0
4725,7335,16.02,0
4726,6221,98.39,0
4727,5155,189.98,0
4728,4741,272.32,0
4729,5156,332.05,0
4730,6196,365.75,0
4731,7315,379.15,0
4732,7901,382.26,0
4733,7674,383.74,0
4734,6755,387.58,0
4735,5688,393.32,0
4736,5030,399.01,0
4737,5158,404.41,0
4738,5998,412.11,0
4739,7096,425.86,0
4740,7825,447.39,0
4741,7780,473.60,0
4742,6972,496.22,0
4743,5802,504.42,0
4744,4861,489.39,0
4745,4655,448.35,0
4746,5213,385.78,0
4747,6253,311.36,0
4748,7143,235.63,0
4749,7339,165.66,0
4750,6710,102.49,0
4751,5533,41.37,0
4752,4454,-25.24,0
4753,4009,-102.86,0
4754,4436,-190.95,0
4755,5520,-281.64,0
4756,6680,-362.10,0
4757,7264,-419.27,0
4758,6962,-445.24,0
4759,5984,-440.79,0
4760,4899,-415.00,0
4761,4305,-380.48,0
4762,4508,-346.86,0
4763,5377,-316.94,0
4764,6492,-287.85,0
4765,7193,-255.81,0
4766,7082,-221.11,0
4767,6190,-190.29,0
4768,4993,-174.50,0
4769,4179,-184.29,0
4770,4130,-223.14,0
4771,4892,-283.54,0
4772,6093,-348.46,0
4773,7070,-397.87,0
4774,7286,-416.84,0
4775,6612,-401.80,0
4776,5434,-362.15,0
4777,4375,-316.15,0
4778,3954,-282.79,0
4779,4373,-274.03,0
4780,5425,-291.26,0
4781,6557,-326.86,0
4782,7158,-368.60,0
4783,6967,-404.30,0
4784,6170,-424.71,0
4785,5330,-423.51,0
4786,5050,-394.81,0
4787,5655,-330.10,0
4788,6995,-217.32,0
4789,8589,-43.31,0
4790,9835,201.33,0
4791,10303,518.00,0
4792,10074,899.00,0
4793,9579,1330.41,0
4794,9348,1797.58,0
4795,9574,2289.44,0
4796,10119,2796.74,0
4797,10690,3303.13,0
4798,10727,3774.37,0
4799,9793,4154.10,0
4800,7975,4370.18,0
4801,5829,4350.62,0
4802,4048,4044.96,0
4803,3263,3444.35,0
4804,3551,2592.24,0
4805,4614,1580.38,0
4806,5779,530.36,0
4807,6415,-433.23,0
4808,6203,-1209.17,0
4809,5329,-1737.79,0
4810,4389,-2006.83,0
4811,3939,-2044.82,0
4812,4274,-1906.51,0
4813,5256,-1656.62,0
4814,6421,-1357.12,0
4815,7102,-1059.75,0
4816,6958,-802.85,0
4817,6074,-611.08,0
4818,4948,-495.79,0
4819,4199,-455.00,0
4820,4199,-474.05,0
4821,4973,-528.69,0
4822,6128,-591.27,0
4823,7012,-638.25,0
4824,7140,-656.27,0
4825,6418,-644.92,0
4826,5221,-615.20,0
4827,4227,-584.18,0
4828,3956,-567.43,0
4829,4508,-572.25,0
4830,5648,-595.25,0
4831,6759,-624.99,0
4832,7233,-647.74,0
4833,6829,-653.47,0
4834,5769,-639.72,0
4835,4649,-611.80,0
4836,4106,-579.36,0
4837,4414,-550.98,0
4838,5413,-529.97,0
4839,6589,-513.61,0
4840,7254,-496.15,0
4841,7060,-473.46,0
4842,6130,-446.74,0
4843,4928,-422.80,0
4844,4132,-410.59,0
4845,4107,-416.09,0
4846,4908,-438.78,0
4847,6114,-471.53,0
4848,7049,-503.43,0
4849,7211,-524.16,0
4850,6517,-528.22,0
4851,5350,-516.96,0
4852,4389,-497.36,0
4853,4087,-477.86,0
4854,4626,-464.04,0
4855,5739,-456.68,0
4856,6826,-452.67,0
4857,7265,-447.61,0
4858,6843,-438.53,0
4859,5805,-425.72,0
4860,4743,-412.34,0
4861,4253,-401.70,0
4862,4590,-394.11,0
4863,5584,-385.62,0
4864,6725,-370.04,0
4865,7386,-342.73,0
4866,7217,-303.97,0
4867,6299,-259.75,0
4868,5148,-219.77,0
4869,4362,-193.22,0
4870,4361,-184.81,0
4871,5123,-192.91,0
4872,6269,-210.99,0
4873,7136,-231.05,0
4874,7225,-247.25,0
4875,6498,-258.25,0
4876,5347,-267.42,0
4877,4429,-280.15,0
4878,4202,-299.67,0
4879,4822,-323.87,0
4880,5986,-345.37,0
4881,7079,-354.65,0
4882,7504,-344.31,0
4883,7053,-312.67,0
4884,6021,-264.99,0
4885,4969,-211.28,0
4886,4473,-161.68,0
4887,4774,-122.05,0
4888,5738,-92.69,0
4889,6820,-70.35,0
4890,7408,-51.91,0
4891,7136,-37.50,0
4892,6165,-31.56,0
4893,4995,-41.04,0
4894,4295,-71.10,0
4895,4391,-120.52,0
4896,5225,-180.05,0
4897,6427,-235.08,0
4898,7327,-271.40,0
4899,7464,-280.36,0
4900,6781,-261.48,0
4901,5678,-221.71,0
4902,4753,-171.83,0
4903,4500,-121.99,0
4904,5039,-78.61,0
4905,6111,-44.08,0
4906,7075,-18.55,0
4907,7401,-2.23,0
4908,6888,3.04,0
4909,5809,-6.07,0
4910,4765,-32.28,0
4911,4352,-74.54,0
4912,4804,-125.54,0
4913,5940,-171.80,0
4914,7188,-197.06,0
4915,7894,-187.70,0
4916,7722,-137.95,0
4917,6771,-52.80,0
4918,5553,53.03,0
4919,4719,159.35,0
4920,4645,246.47,0
4921,5309,299.88,0
4922,6349,312.22,0
4923,7149,282.79,0
4924,7231,216.40,0
4925,6540,122.17,0
4926,5465,12.40,0
4927,4625,-98.49,0
4928,4479,-195.02,0
4929,5100,-262.51,0
4930,6241,-290.25,0
4931,7259,-274.81,0
4932,7622,-221.66,0
4933,7139,-144.22,0
4934,6104,-60.33,0
4935,5082,12.96,0
4936,4629,64.66,0
4937,4959,92.64,0
4938,5906,102.44,0
4939,6936,102.69,0
4940,7450,99.84,0
4941,7137,94.76,0
4942,6118,82.51,0
4943,4926,55.29,0
4944,4193,6.99,0
4945,4276,-62.44,0
4946,5114,-145.45,0
4947,6274,-228.95,0
4948,7089,-299.20,0
4949,7120,-346.93,0
4950,6351,-370.57,0
4951,5211,-376.04,0
4952,4366,-373.06,0
4953,4233,-369.52,0
4954,4875,-367.52,0
4955,5996,-363.38,0
4956,6953,-351.52,0
4957,7221,-329.17,0
4958,6670,-299.44,0
4959,5572,-270.85,0
4960,4531,-253.64,0
4961,4087,-254.62,0
4962,4487,-273.66,0
4963,5524,-303.47,0
4964,6665,-332.80,0
4965,7237,-351.10,0
4966,6936,-352.82,0
4967,5931,-339.92,0
4968,4761,-320.94,0
4969,4037,-306.90,0
4970,4117,-306.02,0
4971,4924,-320.49,0
4972,6062,-346.76,0
4973,6868,-378.35,0
4974,6897,-409.18,0
4975,6155,-435.77,0
4976,5078,-457.56,0
4977,4325,-474.85,0
4978,4301,-485.50,0
4979,5043,-483.03,0
4980,6227,-458.43,0
4981,7202,-404.86,0
4982,7462,-322.59,0
4983,6851,-221.36,0
4984,5687,-118.76,0
4985,4618,-35.02,0
4986,4171,13.96,0
4987,4528,22.18,0
4988,5497,-5.45,0
4989,6536,-56.79,0
4990,7034,-118.34,0
4991,6723,-180.11,0
4992,5735,-237.77,0
4993,4647,-291.41,0
4994,4046,-342.02,0
4995,4269,-387.70,0
4996,5170,-422.17,0
4997,6333,-437.10,0
4998,7098,-426.65,0
4999,7075,-391.49,0
5000,6300,-339.74,0
5001,5193,-284.34,0
5002,4400,-237.69,0
5003,4323,-206.34,0
5004,5015,-188.62,0
5005,6144,-176.63,0
5006,7061,-161.27,0
5007,7267,-137.46,0
5008,6645,-107.18,0
5009,5536,-78.77,0
5010,4553,-62.67,0
5011,4212,-65.50,0
5012,4671,-85.89,0
5013,5695,-114.83,0
5014,6731,-140.28,0
5015,7166,-153.39,0
5016,6722,-153.04,0
5017,5644,-146.92,0
5018,4507,-148.18,0
5019,3919,-168.76,0
5020,4174,-212.53,0
5021,5157,-272.17,0
5022,6405,-331.69,0
5023,7217,-372.76,0
5024,7190,-381.89,0
5025,6375,-355.49,0
5026,5194,-300.82,0
5027,4307,-232.58,0
5028,4151,-167.10,0
5029,4777,-117.03,0
5030,5870,-88.94,0
5031,6774,-83.64,0
5032,6997,-98.32,0
5033,6400,-128.81,0
5034,5315,-170.93,0
5035,4391,-220.25,0
5036,4083,-270.52,0
5037,4560,-312.79,0
5038,5581,-337.24,0
5039,6618,-337.19,0
5040,7073,-312.78,0
5041,6678,-271.91,0
5042,5652,-228.22,0
5043,4538,-196.54,0
5044,3937,-187.48,0
5045,4150,-203.28,0
5046,5086,-237.19,0
5047,6271,-276.52,0
5048,7016,-307.72,0
5049,6915,-321.47,0
5050,6047,-316.09,0
5051,4891,-297.77,0
5052,4097,-276.85,0
5053,4083,-261.93,0
5054,4849,-255.36,0
5055,6017,-252.65,0
5056,6928,-246.01,0
5057,7061,-229.61,0
5058,6341,-203.93,0
5059,5167,-176.83,0
5060,4186,-160.15,0
5061,3887,-163.25,0
5062,4392,-187.49,0
5063,5453,-225.31,0
5064,6487,-264.41,0
5065,6899,-293.96,0
5066,6486,-309.52,0
5067,5498,-314.24,0
5068,4488,-315.65,0
5069,4018,-319.74,0
5070,4329,-326.17,0
5071,5278,-327.84,0
5072,6392,-315.28,0
5073,7010,-282.75,0
5074,6750,-232.93,0
5075,5748,-178.10,0
5076,4509,-136.86,0
5077,3692,-127.16,0
5078,3670,-158.42,0
5079,4434,-226.98,0
5080,5622,-317.46,0
5081,6563,-408.84,0
5082,6764,-481.85,0
5083,6140,-524.73,0
5084,5036,-535.46,0
5085,4101,-520.01,0
5086,3817,-487.81,0
5087,4348,-447.19,0
5088,5431,-403.14,0
5089,6494,-357.89,0
5090,6916,-312.85,0
5091,6479,-270.75,0
5092,5429,-236.45,0
5093,4361,-215.77,0
5094,3849,-212.22,0
5095,4135,-223.85,0
5096,5075,-242.89,0
5097,6196,-258.95,0
5098,6843,-263.90,0
5099,6669,-255.48,0
5100,5765,-238.26,0
5101,4633,-221.37,0
5102,3919,-213.70,0
5103,3971,-218.88,0
5104,4765,-232.87,0
5105,5912,-246.04,0
5106,6763,-248.48,0
5107,6848,-235.31,0
5108,6141,-209.38,0
5109,5041,-180.06,0
5110,4212,-158.15,0
5111,4085,-149.23,0
5112,4767,-149.38,0
5113,5963,-146.22,0
5114,7070,-124.67,0
5115,7474,-74.16,0
5116,6968,6.00,0
5117,5828,104.95,0
5118,4672,203.34,0
5119,4121,280.33,0
5120,4445,321.53,0
5121,5487,324.23,0
5122,6714,297.71,0
5123,7447,258.91,0
5124,7300,225.77,0
5125,6410,210.76,0
5126,5293,217.60,0
5127,4548,242.51,0
5128,4575,278.43,0
5129,5321,318.85,0
5130,6432,359.04,0
5131,7228,395.08,0
5132,7233,422.23,0
5133,6422,434.03,0
5134,5187,422.92,0
5135,4221,382.91,0
5136,3956,313.39,0
5137,4489,221.57,0
5138,5529,120.88,0
5139,6511,26.03,0
5140,6841,-52.40,0
5141,6328,-111.08,0
5142,5225,-153.89,0
5143,4151,-188.93,0
5144,3632,-223.90,0
5145,3925,-262.07,0
5146,4898,-301.38,0
5147,6030,-336.53,0
5148,6663,-362.22,0
5149,6461,-375.99,0
5150,5545,-379.55,0
5151,4427,-377.93,0
5152,3743,-376.56,0
5153,3844,-377.59,0
5154,4652,-378.30,0
5155,5779,-372.91,0
5156,6587,-356.77,0
5157,6596,-330.05,0
5158,5787,-299.16,0
5159,4595,-275.14,0
5160,3689,-269.32,0
5161,3511,-287.67,0
5162,4156,-326.96,0
5163,5288,-375.50,0
5164,6331,-418.03,0
5165,6663,-442.06,0
5166,6120,-442.72,0
5167,4997,-424.40,0
5168,3935,-398.34,0
5169,3451,-376.96,0
5170,3788,-368.01,0
5171,4757,-372.16,0
5172,5874,-384.70,0
5173,6479,-399.30,0
5174,6239,-411.45,0
5175,5340,-420.16,0
5176,4384,-426.97,0
5177,3985,-431.71,0
5178,4525,-427.16,0
5179,5926,-396.05,0
5180,7698,-313.14,0
5181,9128,-151.62,0
5182,9739,108.39,0
5183,9520,472.80,0
5184,8918,931.09,0
5185,8508,1459.81,0
5186,8674,2029.51,0
5187,9280,2610.18,0
5188,9964,3170.78,0
5189,10212,3673.65,0
5190,9538,4069.97,0
5191,7896,4301.74,0
5192,5812,4311.89,0
5193,3991,4059.95,0
5194,3038,3538.39,0
5195,3103,2782.58,0
5196,3938,1868.40,0
5197,4985,897.27,0
5198,5620,-25.45,0
5199,5454,-811.08,0
5200,4669,-1401.35,0
5201,3781,-1773.14,0
5202,3357,-1934.38,0
5203,3679,-1914.64,0
5204,4647,-1755.43,0
5205,5804,-1503.43,0
5206,6540,-1206.40,0
5207,6459,-910.08,0
5208,5602,-654.44,0
5209,4426,-468.97,0
5210,3572,-368.18,0
5211,3442,-349.09,0
5212,4102,-392.89,0
5213,5235,-471.38,0
5214,6232,-555.54,0
5215,6533,-622.81,0
5216,5976,-661.07,0
5217,4885,-669.11,0
5218,3912,-653.83,0
5219,3537,-625.11,0
5220,3956,-590.86,0
5221,4971,-555.01,0
5222,6039,-518.87,0
5223,6560,-483.65,0
5224,6230,-452.11,0
5225,5249,-428.76,0
5226,4191,-418.22,0
5227,3609,-422.14,0
5228,3819,-436.58,0
5229,4723,-452.30,0
5230,5909,-458.29,0
5231,6705,-446.27,0
5232,6706,-413.75,0
5233,5927,-364.75,0
5234,4811,-308.00,0
5235,3988,-253.35,0
5236,3875,-207.80,0
5237,4511,-173.43,0
5238,5585,-148.41,0
5239,6503,-129.98,0
5240,6687,-117.12,0
5241,6054,-111.71,0
5242,4941,-117.96,0
5243,4000,-139.74,0
5244,3676,-176.76,0
5245,4161,-222.07,0
5246,5238,-263.57,0
5247,6360,-288.58,0
5248,6892,-288.64,0
5249,6547,-262.60,0
5250,5517,-217.18,0
5251,4385,-164.84,0
5252,3727,-119.31,0
5253,3898,-90.51,0
5254,4773,-81.55,0
5255,5934,-89.07,0
5256,6703,-105.91,0
5257,6679,-124.51,0
5258,5895,-139.48,0
5259,4803,-148.64,0
5260,4029,-151.77,0
5261,3991,-148.28,0
5262,4690,-135.85,0
5263,5817,-111.42,0
5264,6716,-73.89,0
5265,6873,-26.48,0
5266,6213,22.49,0
5267,5070,61.28,0
5268,4115,78.82,0
5269,3820,69.93,0
5270,4343,38.75,0
5271,5429,-2.19,0
5272,6515,-37.03,0
5273,6996,-53.08,0
5274,6598,-45.54,0
5275,5566,-18.98,0
5276,4484,15.25,0
5277,3934,44.75,0
5278,4216,62.24,0
5279,5190,68.68,0
5280,6392,71.82,0
5281,7166,81.57,0
5282,7111,105.14,0
5283,6293,143.79,0
5284,5163,192.66,0
5285,4378,243.56,0
5286,4323,289.13,0
5287,5016,325.88,0
5288,6119,354.21,0
5289,7004,375.99,0
5290,7170,391.99,0
5291,6511,400.60,0
5292,5374,398.16,0
5293,4413,381.23,0
5294,4116,349.53,0
5295,4615,308.14,0
5296,5697,266.59,0
5297,6786,235.35,0
5298,7301,221.93,0
5299,6971,228.51,0
5300,6001,251.90,0
5301,4936,285.32,0
5302,4375,321.54,0
5303,4578,355.67,0
5304,5456,385.96,0
5305,6548,412.46,0
5306,7229,434.76,0
5307,7100,450.78,0
5308,6236,456.78,0
5309,5101,448.81,0
5310,4356,425.14,0
5311,4380,388.86,0
5312,5138,348.67,0
5313,6289,316.37,0
5314,7155,302.09,0
5315,7263,309.59,0
5316,6536,334.02,0
5317,5366,363.09,0
5318,4402,381.91,0
5319,4151,379.61,0
5320,4727,354.55,0
5321,5864,315.23,0
5322,6963,276.26,0
5323,7420,252.02,0
5324,6983,250.75,0
5325,5914,271.46,0
5326,4776,304.80,0
5327,4234,337.71,0
5328,4542,359.66,0
5329,5507,367.19,0
5330,6624,364.07,0
5331,7239,357.36,0
5332,6964,351.82,0
5333,5942,345.95,0
5334,4698,331.76,0
5335,3892,299.00,0
5336,3914,241.72,0
5337,4777,163.13,0
5338,6051,76.14,0
5339,7023,-0.69,0
5340,7182,-49.86,0
5341,6450,-61.81,0
5342,5206,-38.90,0
5343,4146,5.48,0
5344,3779,52.31,0
5345,4240,84.12,0
5346,5269,90.18,0
5347,6257,67.78,0
5348,6635,20.35,0
5349,6167,-45.63,0
5350,5096,-123.33,0
5351,4081,-206.41,0
5352,3641,-287.75,0
5353,4007,-357.66,0
5354,5018,-404.46,0
5355,6160,-418.21,0
5356,6788,-395.40,0
5357,6552,-341.84,0
5358,5591,-272.25,0
5359,4459,-206.06,0
5360,3753,-160.43,0
5361,3850,-143.36,0
5362,4689,-150.90,0
5363,5878,-169.96,0
5364,6742,-185.04,0
5365,6816,-185.12,0
5366,6060,-167.97,0
5367,4863,-140.32,0
5368,3910,-113.96,0
5369,3682,-99.67,0
5370,4292,-101.86,0
5371,5425,-116.93,0
5372,6485,-135.90,0
5373,6884,-149.19,0
5374,6432,-150.98,0
5375,5397,-141.17,0
5376,4390,-123.96,0
5377,3918,-104.10,0
5378,4232,-83.52,0
5379,5169,-60.95,0
5380,6268,-34.53,0
5381,6873,-4.68,0
5382,6668,24.64,0
5383,5780,47.01,0
5384,4721,56.39,0
5385,4095,50.99,0
5386,4215,35.93,0
5387,5033,22.29,0
5388,6124,22.31,0
5389,6859,42.91,0
5390,6814,81.35,0
5391,5982,125.00,0
5392,4790,155.72,0
5393,3882,157.23,0
5394,3708,122.37,0
5395,4344,56.70,0
5396,5486,-23.56,0
5397,6535,-98.06,0
5398,6905,-149.79,0
5399,6422,-170.29,0
5400,5362,-161.24,0
5401,4356,-131.91,0
5402,3920,-93.83,0
5403,4312,-55.31,0
5404,5353,-19.03,0
5405,6511,16.87,0
5406,7177,55.71,0
5407,7011,99.40,0
5408,6128,146.97,0
5409,5003,194.98,0
5410,4277,239.19,0
5411,4303,276.46,0
5412,5037,305.40,0
5413,6098,325.54,0
5414,6835,335.63,0
5415,6828,332.70,0
5416,6054,312.58,0
5417,4908,271.80,0
5418,4029,210.32,0
5419,3870,133.83,0
5420,4501,53.81,0
5421,5629,-15.31,0
5422,6633,-60.99,0
5423,6952,-76.95,0
5424,6426,-65.32,0
5425,5343,-35.84,0
5426,4332,-1.99,0
5427,3909,24.63,0
5428,4306,38.91,0
5429,5309,43.22,0
5430,6413,44.48,0
5431,6973,49.45,0
5432,6716,60.91,0
5433,5782,76.37,0
5434,4730,90.00,0
5435,4116,96.94,0
5436,4249,97.20,0
5437,5058,96.18,0
5438,6124,101.15,0
5439,6790,115.95,0
5440,6667,137.30,0
5441,5816,154.42,0
5442,4639,152.87,0
5443,3796,121.25,0
5444,3687,57.53,0
5445,4389,-28.46,0
5446,5583,-117.95,0
5447,6624,-189.81,0
5448,6956,-227.67,0
5449,6450,-225.01,0
5450,5384,-186.44,0
5451,4412,-124.77,0
5452,4056,-54.94,0
5453,4497,11.95,0
5454,5521,71.55,0
5455,6575,124.56,0
5456,7033,172.57,0
5457,6575,213.78,0
5458,5439,240.82,0
5459,4228,242.13,0
5460,3559,207.43,0
5461,3725,134.39,0
5462,4641,32.32,0
5463,5860,-79.92,0
5464,6715,-180.07,0
5465,6772,-249.58,0
5466,6039,-278.66,0
5467,4950,-267.80,0
5468,4151,-225.35,0
5469,4055,-162.72,0
5470,4724,-89.96,0
5471,5826,-14.16,0
5472,6748,59.41,0
5473,6960,125.35,0
5474,6308,176.88,0
5475,5157,206.12,0
5476,4174,206.51,0
5477,3865,176.91,0
5478,4401,124.97,0
5479,5524,66.84,0
5480,6665,22.08,0
5481,7166,6.53,0
5482,6766,25.95,0
5483,5675,73.34,0
5484,4477,131.25,0
5485,3808,178.73,0
5486,3971,199.75,0
5487,4857,188.84,0
5488,6020,151.47,0
5489,6792,99.89,0
5490,6767,47.45,0
5491,5977,3.91,0
5492,4865,-26.47,0
5493,4069,-43.66,0
5494,3989,-48.89,0
5495,4669,-42.42,0
5496,5799,-23.82,0
5497,6746,6.25,0
5498,6980,44.41,0
5499,6405,84.41,0
5500,5329,118.48,0
5501,4392,140.23,0
5502,4093,147.93,0
5503,4615,146.32,0
5504,5665,145.12,0
5505,6688,154.46,0
5506,7102,179.38,0
5507,6675,216.33,0
5508,5591,253.74,0
5509,4452,276.50,0
5510,3842,272.49,0
5511,4058,238.23,0
5512,4990,180.70,0
5513,6173,114.37,0
5514,6962,55.59,0
5515,6951,17.04,0
5516,6197,4.51,0
5517,5109,16.80,0
5518,4360,48.31,0
5519,4329,92.83,0
5520,5057,146.09,0
5521,6182,205.89,0
5522,7062,269.98,0
5523,7240,333.79,0
5524,6646,389.77,0
5525,5610,429.40,0
5526,4729,447.38,0
5527,4503,445.54,0
5528,5054,433.78,0
5529,6157,426.93,0
5530,7209,438.64,0
5531,7675,475.63,0
5532,7293,534.81,0
5533,6284,604.48,0
5534,5190,669.08,0
5535,4605,715.27,0
5536,4785,736.58,0
5537,5607,734.39,0
5538,6586,714.73,0
5539,7118,683.10,0
5540,6874,640.47,0
5541,5967,582.76,0
5542,4846,504.25,0
5543,4101,403.30,0
5544,4082,286.56,0
5545,4782,168.63,0
5546,5872,66.89,0
5547,6707,-5.40,0
5548,6824,-44.14,0
5549,6145,-55.42,0
5550,5020,-52.67,0
5551,4069,-51.02,0
5552,3756,-61.14,0
5553,4214,-85.73,0
5554,5189,-120.39,0
5555,6174,-157.86,0
5556,6588,-192.60,0
5557,6213,-222.96,0
5558,5283,-250.54,0
5559,4362,-277.25,0
5560,3937,-301.54,0
5561,4264,-316.53,0
5562,5192,-312.15,0
5563,6250,-280.38,0
5564,6805,-220.82,0
5565,6535,-143.33,0
5566,5546,-66.75,0
5567,4393,-13.44,0
5568,3672,-1.12,0
5569,3729,-35.22,0
5570,4524,-105.94,0
5571,5715,-192.04,0
5572,6687,-268.83,0
5573,6903,-316.09,0
5574,6286,-323.26,0
5575,5187,-291.16,0
5576,4204,-230.20,0
5577,3847,-156.09,0
5578,4260,-84.88,0
5579,5214,-29.73,0
5580,6185,0.56,0
5581,6613,1.91,0
5582,6347,-24.59,0
5583,5622,-71.84,0
5584,4987,-125.35,0
5585,4986,-162.34,0
5586,5855,-153.16,0
5587,7433,-65.81,0
5588,9193,127.00,0
5589,10507,441.06,0
5590,10953,876.13,0
5591,10697,1415.41,0
5592,10010,2028.81,0
5593,9252,2678.08,0
5594,8767,3319.34,0
5595,8674,3901.28,0
5596,8674,4363.45,0
5597,8271,4639.67,0
5598,7228,4667.96,0
5599,5621,4404.60,0
5600,3921,3838.76,0
5601,2740,3003.07,0
5602,2513,1975.63,0
5603,3225,870.60,0
5604,4513,-182.11,0
5605,5747,-1062.93,0
5606,6297,-1686.86,0
5607,5938,-2018.71,0
5608,4957,-2075.94,0
5609,4015,-1918.70,0
5610,3605,-1630.06,0
5611,3987,-1293.29,0
5612,4994,-974.22,0
5613,6160,-712.99,0
5614,6839,-524.49,0
5615,6671,-404.64,0
5616,5777,-339.19,0
5617,4656,-311.78,0
5618,3948,-308.46,0
5619,4013,-318.30,0
5620,4807,-332.07,0
5621,5940,-341.57,0
5622,6731,-340.63,0
5623,6719,-327.20,0
5624,5904,-305.41,0
5625,4698,-285.58,0
5626,3763,-280.90,0
5627,3571,-301.46,0
5628,4207,-348.71,0
5629,5361,-413.67,0
5630,6413,-479.93,0
5631,6763,-529.96,0
5632,6227,-552.06,0
5633,5113,-545.02,0
5634,4084,-518.17,0
5635,3646,-485.98,0
5636,4041,-460.42,0
5637,5046,-445.82,0
5638,6155,-438.77,0
5639,6732,-432.21,0
5640,6484,-420.52,0
5641,5526,-403.22,0
5642,4426,-385.14,0
5643,3776,-373.22,0
5644,3936,-371.40,0
5645,4845,-377.24,0
5646,6074,-382.07,0
5647,6945,-374.61,0
5648,7007,-346.09,0
5649,6249,-294.77,0
5650,5094,-227.51,0
5651,4205,-157.30,0
5652,4012,-97.72,0
5653,4605,-57.39,0
5654,5688,-37.78,0
5655,6646,-34.58,0
5656,6946,-41.36,0
5657,6440,-53.05,0
5658,5425,-67.59,0
5659,4491,-84.81,0
5660,4156,-103.27,0
5661,4585,-117.73,0
5662,5585,-119.77,0
5663,6631,-101.77,0
5664,7127,-61.60,0
5665,6789,-5.50,0
5666,5787,52.79,0
5667,4648,96.23,0
5668,3986,110.93,0
5669,4142,91.92,0
5670,5016,45.46,0
5671,6188,-13.41,0
5672,6999,-66.80,0
5673,7000,-100.57,0
5674,6208,-109.11,0
5675,5058,-96.54,0
5676,4208,-73.63,0
5677,4107,-51.79,0
5678,4807,-37.34,0
5679,5994,-29.14,0
5680,7019,-20.36,0
5681,7327,-2.92,0
5682,6792,27.76,0
5683,5702,69.92,0
5684,4661,116.08,0
5685,4239,156.81,0
5686,4631,185.11,0
5687,5632,199.18,0
5688,6710,201.95,0
5689,7259,198.50,0
5690,6957,192.98,0
5691,5978,186.51,0
5692,4879,177.12,0
5693,4277,162.13,0
5694,4516,141.71,0
5695,5466,121.25,0
5696,6716,110.54,0
5697,7574,120.03,0
5698,7613,156.34,0
5699,6840,218.89,0
5700,5709,299.26,0
5701,4828,383.95,0
5702,4674,459.25,0
5703,5278,515.70,0
5704,6341,549.71,0
5705,7212,562.18,0
5706,7397,555.66,0
5707,6735,531.59,0
5708,5616,489.37,0
5709,4591,427.95,0
5710,4217,349.22,0
5711,4687,260.59,0
5712,5806,174.77,0
5713,6986,106.75,0
5714,7593,69.52,0
5715,7319,69.86,0
5716,6343,105.71,0
5717,5191,166.46,0
5718,4504,236.38,0
5719,4608,299.77,0
5720,5421,345.28,0
5721,6531,367.72,0
5722,7261,367.19,0
5723,7209,347.01,0
5724,6406,311.43,0
5725,5284,264.34,0
5726,4494,209.97,0
5727,4460,154.51,0
5728,5191,107.09,0
5729,6360,78.22,0
5730,7305,76.10,0
5731,7539,102.73,0
5732,6920,151.98,0
5733,5794,210.74,0
5734,4766,263.08,0
5735,4385,295.95,0
5736,4811,303.65,0
5737,5811,288.90,0
5738,6823,259.92,0
5739,7274,225.50,0
5740,6867,190.81,0
5741,5815,155.60,0
5742,4675,115.62,0
5743,4053,66.31,0
5744,4280,7.08,0
5745,5206,-56.50,0
5746,6378,-114.17,0
5747,7144,-155.13,0
5748,7108,-172.62,0
5749,6318,-166.58,0
5750,5194,-143.21,0
5751,4378,-111.82,0
5752,4267,-80.73,0
5753,4889,-54.76,0
5754,5922,-35.58,0
5755,6743,-24.13,0
5756,6863,-22.97,0
5757,6158,-36.98,0
5758,4964,-72.23,0
5759,3961,-133.19,0
5760,3641,-219.08,0
5761,4161,-321.29,0
5762,5269,-424.13,0
5763,6411,-509.20,0
5764,6947,-561.29,0
5765,6624,-573.11,0
5766,5666,-547.20,0
5767,4623,-494.22,0
5768,4082,-427.93,0
5769,4331,-359.66,0
5770,5246,-295.32,0
5771,6349,-236.06,0
5772,7003,-181.67,0
5773,6854,-133.97,0
5774,5978,-98.27,0
5775,4838,-81.80,0
5776,4075,-89.63,0
5777,4087,-120.44,0
5778,4868,-164.88,0
5779,6050,-207.96,0
5780,6997,-234.47,0
5781,7194,-234.60,0
5782,6546,-207.46,0
5783,5394,-161.18,0
5784,4394,-109.62,0
5785,4049,-66.78,0
5786,4494,-41.71,0
5787,5495,-36.47,0
5788,6491,-47.88,0
5789,6887,-71.08,0
5790,6456,-102.69,0
5791,5418,-142.01,0
5792,4362,-189.92,0
5793,3871,-245.63,0
5794,4225,-303.52,0
5795,5257,-352.45,0
5796,6523,-378.59,0
5797,7342,-370.20,0
5798,7320,-321.91,0
5799,6480,-237.04,0
5800,5288,-127.39,0
5801,4417,-10.54,0
5802,4271,94.70,0
5803,4872,172.89,0
5804,5911,214.48,0
5805,6725,216.16,0
5806,6846,179.80,0
5807,6193,111.08,0
5808,5126,18.37,0
5809,4253,-87.25,0
5810,4031,-191.56,0
5811,4600,-278.11,0
5812,5726,-331.49,0
5813,6802,-341.77,0
5814,7246,-307.94,0
5815,6819,-238.89,0
5816,5788,-151.52,0
5817,4709,-66.02,0
5818,4169,0.51,0
5819,4434,39.36,0
5820,5372,51.76,0
5821,6513,46.33,0
5822,7199,34.14,0
5823,7042,24.00,0
5824,6132,19.38,0
5825,4951,17.89,0
5826,4149,13.73,0
5827,4129,1.77,0
5828,4871,-19.07,0
5829,6006,-45.28,0
5830,6891,-71.00,0
5831,7044,-91.15,0
5832,6361,-103.98,0
5833,5217,-111.66,0
5834,4258,-118.87,0
5835,3954,-129.85,0
5836,4446,-145.77,0
5837,5476,-164.39,0
5838,6481,-182.21,0
5839,6867,-197.02,0
5840,6412,-209.56,0
5841,5372,-223.52,0
5842,4355,-243.54,0
5843,3866,-271.67,0
5844,4189,-304.53,0
5845,5152,-333.66,0
5846,6290,-349.18,0
5847,6947,-344.41,0
5848,6765,-319.11,0
5849,5839,-280.20,0
5850,4693,-239.56,0
5851,3957,-209.46,0
5852,4015,-197.15,0
5853,4841,-201.64,0
5854,6060,-214.46,0
5855,6966,-223.68,0
5856,7084,-219.23,0
5857,6385,-197.33,0
5858,5258,-161.98,0
5859,4362,-122.36,0
5860,4156,-87.43,0
5861,4725,-61.18,0
5862,5806,-41.63,0
5863,6786,-23.81,0
5864,7114,-4.22,0
5865,6578,15.92,0
5866,5482,30.16,0
5867,4391,29.61,0
5868,3899,7.94,0
5869,4220,-34.34,0
5870,5167,-89.08,0
5871,6262,-143.93,0
5872,6867,-187.82,0
5873,6653,-215.43,0
5874,5730,-228.66,0
5875,4616,-234.66,0
5876,3929,-241.39,0
5877,4028,-252.78,0
5878,4874,-266.34,0
5879,6068,-274.64,0
5880,6945,-269.33,0
5881,7082,-245.56,0
5882,6402,-204.40,0
5883,5312,-152.40,0
5884,4454,-98.49,0
5885,4279,-49.69,0
5886,4854,-8.10,0
5887,5908,28.68,0
5888,6841,64.00,0
5889,7118,98.21,0
5890,6560,126.66,0
5891,5434,140.67,0
5892,4366,131.21,0
5893,3879,93.71,0
5894,4233,31.63,0
5895,5224,-43.61,0
5896,6356,-116.48,0
5897,6983,-172.80,0
5898,6794,-204.36,0
5899,5882,-210.85,0
5900,4802,-198.59,0
5901,4159,-176.51,0
5902,4311,-151.23,0
5903,5183,-124.04,0
5904,6368,-91.50,0
5905,7185,-49.20,0
5906,7204,4.04,0
5907,6408,63.31,0
5908,5207,118.06,0
5909,4269,155.69,0
5910,4051,166.96,0
5911,4626,150.10,0
5912,5728,111.37,0
5913,6714,61.91,0
5914,7026,13.06,0
5915,6502,-27.71,0
5916,5425,-58.80,0
5917,4429,-83.13,0
5918,4047,-104.22,0
5919,4436,-122.18,0
5920,5435,-132.73,0
5921,6463,-130.34,0
5922,6948,-112.97,0
5923,6588,-85.52,0
5924,5575,-59.76,0
5925,4464,-50.29,0
5926,3823,-67.70,0
5927,3992,-112.79,0
5928,4896,-175.13,0
5929,6125,-236.88,0
5930,7007,-279.48,0
5931,7067,-289.98,0
5932,6298,-265.12,0
5933,5139,-212.05,0
5934,4272,-145.08,0
5935,4142,-79.56,0
5936,4789,-25.78,0
5937,5939,13.53,0
5938,6915,41.56,0
5939,7195,63.41,0
5940,6624,82.00,0
5941,5507,96.05,0
5942,4469,101.16,0
5943,4036,93.40,0
5944,4430,72.84,0
5945,5437,44.60,0
5946,6513,16.59,0
5947,7021,-4.40,0
5948,6708,-16.09,0
5949,5749,-21.89,0
5950,4690,-28.62,0
5951,4126,-41.65,0
5952,4366,-60.34,0
5953,5287,-76.84,0
5954,6468,-79.52,0
5955,7235,-58.90,0
5956,7189,-12.98,0
5957,6349,50.75,0
5958,5203,117.43,0
5959,4378,170.70,0
5960,4289,199.82,0
5961,5013,204.15,0
5962,6194,192.63,0
5963,7197,179.14,0
5964,7531,176.42,0
5965,6925,191.18,0
5966,5860,222.15,0
5967,4879,261.68,0
5968,4560,300.70,0
5969,5065,334.14,0
5970,6164,363.38,0
5971,7247,394.23,0
5972,7745,432.26,0
5973,7407,478.07,0
5974,6414,525.74,0
5975,5327,565.35,0
5976,4738,588.25,0
5977,4921,591.94,0
5978,5759,581.33,0
5979,6787,565.32,0
5980,7432,550.95,0
5981,7308,538.99,0
5982,6470,523.61,0
5983,5352,496.08,0
5984,4564,450.52,0
5985,4474,388.39,0
5986,5102,319.00,0
5987,6124,255.06,0
5988,6913,206.19,0
5989,6997,173.74,0
5990,6339,149.83,0
5991,5222,120.97,0
5992,4281,75.01,0
5993,3986,7.79,0
5994,4471,-73.83,0
5995,5490,-154.67,0
5996,6488,-218.16,0
5997,6866,-254.07,0
5998,6405,-263.10,0
5999,5330,-256.89,0
6000,4265,-252.85,0
6001,3713,-265.94,0
6002,3958,-301.40,0
6003,4856,-352.81,0
6004,5978,-406.30,0
6005,6695,-447.73,0
6006,6635,-468.56,0
6007,5862,-468.14,0
6008,4838,-451.97,0
6009,4166,-427.05,0
6010,4200,-396.97,0
6011,4926,-359.98,0
6012,5971,-311.61,0
6013,6742,-250.07,0
6014,6803,-180.84,0
6015,6107,-117.23,0
6016,4966,-76.34,0
6017,3998,-72.13,0
6018,3653,-109.28,0
6019,4081,-180.97,0
6020,5039,-271.89,0
6021,6012,-364.72,0
6022,6427,-446.24,0
6023,6033,-510.60,0
6024,5092,-558.95,0
6025,4214,-595.79,0
6026,3936,-623.15,0
6027,4561,-635.21,0
6028,5950,-616.64,0
6029,7574,-545.74,0
6030,8796,-400.79,0
6031,9310,-166.88,0
6032,9100,160.05,0
6033,8662,573.45,0
6034,8508,1059.68,0
6035,8978,1602.25,0
6036,9841,2183.29,0
6037,10622,2779.77,0
6038,10800,3355.93,0
6039,10034,3858.04,0
6040,8297,4217.35,0
6041,6119,4362.55,0
6042,4268,4237.57,0
6043,3307,3819.33,0
6044,3356,3129.04,0
6045,4157,2232.43,0
6046,5102,1227.68,0
6047,5626,226.01,0
6048,5431,-669.08,0
6049,4734,-1378.10,0
6050,4034,-1854.47,0
6051,3807,-2085.58,0
6052,4314,-2088.25,0
6053,5372,-1902.01,0
6054,6517,-1581.85,0
6055,7144,-1190.62,0
6056,6952,-791.22,0
6057,6064,-438.48,0
6058,4926,-171.90,0
6059,4159,-10.51,0
6060,4124,48.13,0
6061,4795,24.00,0
6062,5871,-53.40,0
6063,6734,-153.77,0
6064,6940,-252.28,0
6065,6369,-332.08,0
6066,5354,-384.19,0
6067,4496,-405.80,0
6068,4212,-398.30,0
6069,4649,-366.11,0
6070,5565,-316.76,0
6071,6446,-261.50,0
6072,6740,-214.38,0
6073,6266,-189.57,0
6074,5267,-197.60,0
6075,4325,-241.78,0
6076,3923,-315.45,0
6077,4277,-402.23,0
6078,5224,-480.34,0
6079,6302,-529.88,0
6080,6877,-539.85,0
6081,6646,-511.66,0
6082,5740,-458.30,0
6083,4654,-399.38,0
6084,3968,-353.57,0
6085,4028,-331.62,0
6086,4785,-333.53,0
6087,5876,-350.75,0
6088,6688,-371.68,0
6089,6796,-387.06,0
6090,6141,-392.96,0
6091,5094,-390.67,0
6092,4255,-384.02,0
6093,4071,-375.85,0
6094,4655,-365.70,0
6095,5707,-350.11,0
6096,6675,-325.30,0
6097,7015,-290.28,0
6098,6529,-248.69,0
6099,5502,-208.41,0
6100,4537,-178.74,0
6101,4155,-165.77,0
6102,4577,-168.36,0
6103,5619,-177.31,0
6104,6763,-178.85,0
6105,7371,-160.51,0
6106,7147,-116.69,0
6107,6252,-51.52,0
6108,5172,22.73,0
6109,4524,91.15,0
6110,4615,142.83,0
6111,5428,174.83,0
6112,6510,191.59,0
6113,7266,200.86,0
6114,7272,208.54,0
6115,6514,215.37,0
6116,5399,216.95,0
6117,4540,207.01,0
6118,4348,182.15,0
6119,4920,144.83,0
6120,5988,102.78,0
6121,6938,65.49,0
6122,7255,40.16,0
6123,6741,28.82,0
6124,5827,27.94,0
6125,4901,31.49,0
6126,4512,35.61,0
6127,4854,41.23,0
6128,5778,52.72,0
6129,6757,73.90,0
6130,7264,104.32,0
6131,6987,137.82,0
6132,6079,164.16,0
6133,5036,173.10,0
6134,4454,159.27,0
6135,4625,125.74,0
6136,5491,84.05,0
6137,6607,50.14,0
6138,7360,37.85,0
6139,7354,53.14,0
6140,6600,91.64,0
6141,5486,140.52,0
6142,4654,184.03,0
6143,4501,210.14,0
6144,5126,215.00,0
6145,6208,203.31,0
6146,7125,184.72,0
6147,7427,168.78,0
6148,6937,160.73,0
6149,5950,160.41,0
6150,5018,164.29,0
6151,4668,169.21,0
6152,5104,175.34,0
6153,6145,186.80,0
6154,7238,209.52,0
6155,7820,247.95,0
6156,7591,302.07,0
6157,6704,366.48,0
6158,5661,431.97,0
6159,4994,489.10,0
6160,5048,531.51,0
6161,5765,557.01,0
6162,6711,566.08,0
6163,7329,559.14,0
6164,7233,534.55,0
6165,6448,488.79,0
6166,5379,418.92,0
6167,4630,326.39,0
6168,4594,219.99,0
6169,5314,115.98,0
6170,6469,34.25,0
6171,7437,-7.96,0
6172,7718,-1.98,0
6173,7155,48.85,0
6174,6082,129.78,0
6175,5055,219.17,0
6176,4610,295.42,0
6177,4960,343.38,0
6178,5913,357.49,0
6179,6881,341.09,0
6180,7330,302.63,0
6181,6963,250.76,0
6182,5980,190.84,0
6183,4885,124.49,0
6184,4284,52.09,0
6185,4457,-23.67,0
6186,5289,-96.00,0
6187,6373,-155.66,0
6188,7062,-194.96,0
6189,7018,-211.63,0
6190,6235,-210.31,0
6191,5132,-200.83,0
6192,4336,-194.03,0
6193,4221,-197.12,0
6194,4824,-211.01,0
6195,5849,-231.33,0
6196,6681,-252.18,0
6197,6859,-270.06,0
6198,6258,-286.09,0
6199,5222,-305.33,0
6200,4313,-333.36,0
6201,4041,-371.80,0
6202,4547,-415.32,0
6203,5608,-452.39,0
6204,6673,-469.72,0
6205,7149,-457.98,0
6206,6784,-416.42,0
6207,5766,-354.19,0
6208,4658,-287.85,0
6209,4055,-235.32,0
6210,4238,-208.96,0
6211,5107,-211.27,0
6212,6218,-235.25,0
6213,6926,-268.61,0
6214,6854,-299.46,0
6215,6070,-320.90,0
6216,4967,-332.46,0
6217,4212,-337.96,0
6218,4157,-341.43,0
6219,4821,-343.81,0
6220,5904,-342.65,0
6221,6768,-334.60,0
6222,6958,-318.55,0
6223,6354,-297.42,0
6224,5285,-277.84,0
6225,4388,-267.32,0
6226,4120,-270.05,0
6227,4646,-283.61,0
6228,5694,-299.05,0
6229,6714,-304.76,0
6230,7162,-292.15,0
6231,6795,-259.88,0
6232,5816,-214.79,0
6233,4754,-168.95,0
6234,4159,-134.43,0
6235,4282,-118.62,0
6236,5024,-122.69,0
6237,5960,-143.89,0
6238,6513,-179.25,0
6239,6340,-228.23,0
6240,5519,-292.57,0
6241,4508,-373.65,0
6242,3856,-468.45,0
6243,3926,-566.63,0
