sample,adc,filtered,lead_off
0,5553,-0.00,0
1,5558,0.01,0
2,5534,0.03,0
3,5509,-0.14,0
4,5500,-1.17,0
5,5522,-3.94,0
6,5593,-8.74,0
7,5692,-14.11,0
8,5789,-16.28,0
9,5852,-9.83,0
10,5860,10.26,0
11,5857,46.15,0
12,5844,95.66,0
13,5843,152.64,0
14,5864,209.13,0
15,5903,257.94,0
16,5956,294.82,0
17,5996,319.35,0
18,6007,334.40,0
19,5995,344.35,0
20,5973,353.04,0
21,5982,362.46,0
22,6018,372.80,0
23,6086,383.57,0
24,6159,394.97,0
25,6202,408.43,0
26,6196,425.94,0
27,6150,448.47,0
28,6089,474.59,0
29,6021,500.11,0
30,5966,519.20,0
31,5924,526.08,0
32,5890,516.82,0
33,5852,490.25,0
34,5789,447.96,0
35,5692,393.39,0
36,5588,330.34,0
37,5503,261.81,0
38,5451,189.76,0
39,5434,115.79,0
40,5445,42.05,0
41,5458,-28.31,0
42,5445,-91.50,0
43,5401,-144.19,0
44,5340,-184.83,0
45,5294,-214.36,0
46,5270,-235.80,0
47,5281,-252.82,0
48,5323,-268.26,0
49,5367,-282.98,0
50,5392,-295.91,0
51,5390,-304.88,0
52,5359,-308.07,0
53,5326,-305.09,0
54,5311,-297.33,0
55,5317,-287.26,0
56,5373,-277.30,0
57,5401,-268.77,0
58,5437,-261.47,0
59,5443,-254.28,0
60,5415,-246.04,0
61,5371,-236.36,0
62,5334,-226.07,0
63,5315,-216.98,0
64,5321,-211.12,0
65,5333,-209.92,0
66,5331,-213.75,0
67,5296,-222.12,0
68,5231,-234.37,0
69,5176,-250.32,0
70,5176,-270.19,0
71,5253,-293.44,0
72,5422,-317.17,0
73,5709,-334.70,0
74,6099,-335.18,0
75,6568,-304.07,0
76,7094,-224.68,0
77,7642,-80.60,0
78,8204,141.36,0
79,8790,448.42,0
80,9382,840.11,0
81,9980,1308.00,0
82,10525,1836.95,0
83,10890,2406.70,0
84,10925,2992.51,0
85,10582,3563.56,0
86,9789,4080.04,0
87,8660,4491.24,0
88,7288,4737.45,0
89,5922,4757.32,0
90,4776,4500.52,0
91,3986,3943.32,0
92,3515,3102.35,0
93,3329,2040.12,0
94,3370,858.72,0
95,3582,-317.30,0
96,3900,-1363.53,0
97,4267,-2177.77,0
98,4634,-2696.39,0
99,4951,-2902.16,0
100,5183,-2822.65,0
101,5302,-2520.86,0
102,5328,-2080.60,0
103,5300,-1590.25,0
104,5249,-1127.79,0
105,5214,-749.92,0
106,5200,-486.75,0
107,5207,-342.57,0
108,5206,-301.44,0
109,5179,-335.45,0
110,5129,-413.46,0
111,5077,-507.84,0
112,5043,-598.20,0
113,5037,-672.00,0
114,5064,-723.26,0
115,5113,-750.75,0
116,5160,-756.37,0
117,5186,-744.23,0
118,5183,-719.89,0
119,5160,-689.64,0
120,5139,-659.42,0
121,5136,-633.62,0
122,5156,-614.08,0
123,5195,-600.04,0
124,5239,-588.97,0
125,5265,-577.95,0
126,5268,-565.06,0
127,5243,-550.10,0
128,5209,-534.37,0
129,5197,-519.84,0
130,5207,-507.95,0
131,5244,-498.74,0
132,5290,-490.87,0
133,5328,-482.28,0
134,5331,-471.38,0
135,5308,-457.88,0
136,5275,-443.03,0
137,5253,-428.97,0
138,5258,-417.55,0
139,5296,-409.27,0
140,5358,-402.93,0
141,5411,-396.10,0
142,5433,-386.24,0
143,5418,-371.91,0
144,5386,-353.60,0
145,5359,-333.49,0
146,5361,-314.33,0
147,5385,-298.04,0
148,5439,-284.87,0
149,5486,-273.52,0
150,5509,-262.05,0
151,5497,-249.12,0
152,5465,-234.78,0
153,5434,-220.50,0
154,5423,-208.24,0
155,5444,-199.22,0
156,5487,-193.18,0
157,5552,-188.37,0
158,5603,-182.32,0
159,5626,-172.81,0
160,5602,-158.76,0
161,5571,-140.70,0
162,5550,-120.53,0
163,5557,-100.66,0
164,5592,-82.83,0
165,5645,-67.56,0
166,5693,-54.17,0
167,5717,-41.52,0
168,5705,-28.71,0
169,5675,-15.60,0
170,5645,-2.87,0
171,5638,8.54,0
172,5665,18.03,0
173,5721,25.88,0
174,5778,33.18,0
175,5818,41.47,0
176,5813,51.97,0
177,5786,64.94,0
178,5764,79.49,0
179,5747,94.10,0
180,5772,107.48,0
181,5823,119.22,0
182,5884,129.95,0
183,5929,140.95,0
184,5942,153.45,0
185,5928,167.87,0
186,5912,183.72,0
187,5909,199.92,0
188,5929,215.66,0
189,5981,230.93,0
190,6048,246.54,0
191,6103,263.69,0
192,6129,283.25,0
193,6117,305.21,0
194,6085,328.38,0
195,6055,350.73,0
196,6047,370.14,0
197,6064,385.14,0
198,6107,395.37,0
199,6154,401.49,0
200,6175,404.76,0
201,6167,406.44,0
202,6131,407.30,0
203,6097,407.50,0
204,6087,406.82,0
205,6109,405.28,0
206,6151,403.49,0
207,6207,402.63,0
208,6240,403.94,0
209,6245,408.09,0
210,6227,414.84,0
211,6192,423.11,0
212,6169,431.44,0
213,6174,438.59,0
214,6208,443.97,0
215,6257,447.79,0
216,6295,450.78,0
217,6297,453.69,0
218,6271,456.76,0
219,6228,459.43,0
220,6200,460.66,0
221,6186,459.56,0
222,6211,455.96,0
223,6259,450.56,0
224,6300,444.71,0
225,6312,439.82,0
226,6295,436.72,0
227,6244,435.19,0
228,6198,434.07,0
229,6172,431.82,0
230,6169,427.16,0
231,6183,419.63,0
232,6190,409.39,0
233,6178,396.71,0
234,6132,381.41,0
235,6056,362.64,0
236,5980,339.17,0
237,5920,309.99,0
238,5890,274.98,0
239,5893,235.27,0
240,5907,193.05,0
241,5912,150.93,0
242,5885,111.14,0
243,5821,74.91,0
244,5746,42.13,0
245,5683,11.64,0
246,5653,-18.04,0
247,5657,-47.89,0
248,5683,-77.91,0
249,5698,-107.19,0
250,5687,-134.55,0
251,5633,-159.26,0
252,5566,-181.56,0
253,5509,-202.59,0
254,5486,-223.70,0
255,5496,-245.51,0
256,5534,-267.48,0
257,5580,-288.01,0
258,5611,-305.09,0
259,5599,-317.12,0
260,5550,-323.48,0
261,5495,-324.85,0
262,5446,-323.12,0
263,5430,-320.74,0
264,5454,-319.96,0
265,5508,-322.16,0
266,5557,-327.41,0
267,5572,-334.44,0
268,5555,-341.18,0
269,5525,-345.58,0
270,5495,-346.25,0
271,5494,-342.64,0
272,5526,-334.94,0
273,5580,-323.85,0
274,5622,-310.28,0
275,5634,-295.29,0
276,5612,-280.13,0
277,5569,-266.28,0
278,5541,-255.13,0
279,5541,-247.44,0
280,5568,-242.87,0
281,5612,-239.97,0
282,5652,-236.82,0
283,5669,-231.94,0
284,5653,-224.95,0
285,5609,-216.68,0
286,5566,-208.76,0
287,5539,-202.84,0
288,5541,-199.92,0
289,5587,-199.96,0
290,5645,-201.95,0
291,5700,-204.15,0
292,5719,-204.59,0
293,5699,-201.65,0
294,5652,-194.58,0
295,5621,-183.76,0
296,5618,-170.56,0
297,5636,-156.71,0
298,5682,-143.79,0
299,5721,-132.90,0
300,5738,-124.62,0
301,5721,-119.02,0
302,5673,-115.86,0
303,5625,-114.73,0
304,5598,-115.26,0
305,5604,-117.16,0
306,5632,-120.18,0
307,5669,-124.05,0
308,5682,-128.59,0
309,5662,-133.72,0
310,5612,-139.57,0
311,5569,-146.37,0
312,5554,-154.24,0
313,5570,-162.71,0
314,5613,-170.57,0
315,5660,-176.19,0
316,5684,-178.19,0
317,5669,-176.19,0
318,5621,-171.09,0
319,5561,-164.97,0
320,5511,-160.36,0
321,5490,-159.43,0
322,5505,-163.31,0
323,5536,-171.95,0
324,5571,-184.25,0
325,5585,-198.55,0
326,5575,-212.99,0
327,5549,-225.77,0
328,5523,-235.28,0
329,5513,-240.27,0
330,5530,-240.02,0
331,5568,-234.61,0
332,5604,-225.04,0
333,5617,-213.04,0
334,5592,-200.81,0
335,5544,-190.65,0
336,5493,-184.45,0
337,5461,-183.31,0
338,5463,-187.18,0
339,5489,-194.98,0
340,5529,-204.96,0
341,5561,-215.24,0
342,5563,-224.28,0
343,5536,-231.05,0
344,5488,-235.15,0
345,5449,-236.71,0
346,5438,-236.31,0
347,5466,-234.73,0
348,5505,-232.70,0
349,5530,-230.73,0
350,5527,-229.23,0
351,5488,-228.72,0
352,5444,-229.91,0
353,5411,-233.34,0
354,5419,-238.93,0
355,5452,-245.57,0
356,5498,-251.24,0
357,5529,-253.82,0
358,5529,-252.10,0
359,5502,-246.45,0
360,5454,-238.80,0
361,5409,-231.73,0
362,5386,-227.48,0
363,5389,-227.12,0
364,5419,-230.39,0
365,5454,-236.14,0
366,5481,-242.88,0
367,5483,-249.34,0
368,5453,-254.61,0
369,5418,-258.13,0
370,5390,-259.62,0
371,5389,-258.97,0
372,5419,-256.25,0
373,5462,-251.67,0
374,5499,-245.68,0
375,5507,-238.84,0
376,5484,-231.85,0
377,5441,-225.41,0
378,5403,-220.06,0
379,5386,-216.14,0
380,5402,-213.64,0
381,5442,-212.31,0
382,5493,-211.71,0
383,5521,-211.24,0
384,5508,-210.23,0
385,5472,-208.09,0
386,5440,-204.61,0
387,5428,-199.86,0
388,5449,-193.95,0
389,5488,-186.90,0
390,5533,-178.61,0
391,5556,-169.23,0
392,5555,-159.24,0
393,5528,-149.50,0
394,5490,-140.88,0
395,5463,-133.92,0
396,5462,-128.69,0
397,5478,-124.84,0
398,5513,-121.95,0
399,5544,-119.82,0
400,5545,-118.52,0
401,5517,-118.26,0
402,5482,-119.26,0
403,5451,-121.45,0
404,5448,-124.34,0
405,5481,-127.01,0
406,5527,-128.29,0
407,5573,-127.10,0
408,5596,-122.84,0
409,5577,-115.63,0
410,5537,-106.30,0
411,5498,-96.24,0
412,5486,-86.89,0
413,5508,-79.23,0
414,5562,-73.38,0
415,5633,-68.57,0
416,5685,-63.37,0
417,5714,-56.10,0
418,5728,-45.20,0
419,5747,-29.46,0
420,5775,-7.90,0
421,5822,20.30,0
422,5884,55.52,0
423,5942,97.23,0
424,5975,143.54,0
425,5978,191.20,0
426,5947,236.04,0
427,5907,273.94,0
428,5876,301.86,0
429,5892,318.61,0
430,5945,325.30,0
431,6020,325.12,0
432,6092,322.55,0
433,6146,322.25,0
434,6165,327.87,0
435,6145,341.44,0
436,6119,363.04,0
437,6090,390.84,0
438,6076,421.53,0
439,6085,450.83,0
440,6086,474.23,0
441,6043,487.76,0
442,5953,488.34,0
443,5821,473.81,0
444,5685,442.78,0
445,5579,394.84,0
446,5521,331.04,0
447,5510,254.27,0
448,5522,169.36,0
449,5528,82.42,0
450,5510,-0.28,0
451,5463,-73.48,0
452,5397,-133.84,0
453,5336,-180.31,0
454,5303,-213.90,0
455,5309,-237.20,0
456,5339,-253.48,0
457,5364,-265.85,0
458,5363,-276.72,0
459,5325,-287.65,0
460,5271,-299.49,0
461,5222,-312.52,0
462,5201,-326.45,0
463,5217,-340.49,0
464,5259,-353.37,0
465,5306,-363.71,0
466,5334,-370.40,0
467,5326,-372.88,0
468,5301,-371.30,0
469,5266,-366.39,0
470,5240,-359.04,0
471,5237,-350.12,0
472,5260,-340.48,0
473,5299,-331.03,0
474,5320,-322.73,0
475,5295,-316.53,0
476,5234,-313.37,0
477,5151,-314.28,0
478,5073,-320.35,0
479,5021,-332.46,0
480,5022,-351.03,0
481,5094,-375.54,0
482,5223,-403.81,0
483,5384,-431.19,0
484,5600,-450.07,0
485,5893,-450.02,0
486,6289,-418.21,0
487,6812,-340.22,0
488,7432,-201.09,0
489,8106,12.87,0
490,8812,311.61,0
491,9480,698.95,0
492,10119,1170.98,0
493,10715,1716.17,0
494,10982,2316.28,0
495,10987,2946.13,0
496,10898,3571.69,0
497,10364,4149.47,0
498,9345,4628.14,0
499,7912,4949.81,0
500,6347,5052.38,0
501,4947,4877.65,0
502,3929,4387.03,0
503,3315,3580.14,0
504,3052,2506.93,0
505,3081,1265.99,0
506,3313,-11.83,0
507,3646,-1188.42,0
508,3989,-2144.47,0
509,4293,-2799.59,0
510,4539,-3123.08,0
511,4741,-3133.81,0
512,4906,-2890.99,0
513,5033,-2478.71,0
514,5122,-1988.43,0
515,5169,-1503.12,0
516,5169,-1085.66,0
517,5120,-773.05,0
518,5052,-576.41,0
519,4996,-485.80,0
520,4970,-477.72,0
521,4974,-523.06,0
522,5010,-593.84,0
523,5054,-667.60,0
524,5084,-729.20,0
525,5084,-770.52,0
526,5063,-789.08,0
527,5034,-786.45,0
528,5020,-766.87,0
529,5029,-736.19,0
530,5068,-700.90,0
531,5124,-667.02,0
532,5164,-638.98,0
533,5173,-618.66,0
534,5150,-605.34,0
535,5114,-596.43,0
536,5095,-588.72,0
537,5107,-579.63,0
538,5149,-567.81,0
539,5207,-553.30,0
540,5264,-536.94,0
541,5298,-519.68,0
542,5296,-501.87,0
543,5262,-483.05,0
544,5224,-462.53,0
545,5191,-440.19,0
546,5189,-417.24,0
547,5225,-396.18,0
548,5277,-379.95,0
549,5319,-370.47,0
550,5328,-367.51,0
551,5297,-368.61,0
552,5261,-370.08,0
553,5247,-368.56,0
554,5262,-362.15,0
555,5306,-350.77,0
556,5364,-335.75,0
557,5411,-319.06,0
558,5429,-302.30,0
559,5408,-286.17,0
560,5374,-270.49,0
561,5353,-254.68,0
562,5358,-238.34,0
563,5387,-221.60,0
564,5442,-205.16,0
565,5480,-190.00,0
566,5503,-176.90,0
567,5499,-166.04,0
568,5474,-156.76,0
569,5452,-147.79,0
570,5455,-137.68,0
571,5476,-125.47,0
572,5531,-111.07,0
573,5602,-95.14,0
574,5645,-78.58,0
575,5651,-61.84,0
576,5625,-44.75,0
577,5601,-26.91,0
578,5569,-8.10,0
579,5563,11.23,0
580,5604,29.81,0
581,5651,45.79,0
582,5702,57.68,0
583,5732,65.11,0
584,5729,69.31,0
585,5714,72.76,0
586,5705,78.37,0
587,5703,88.44,0
588,5738,103.77,0
589,5789,123.44,0
590,5841,145.28,0
591,5873,166.83,0
592,5870,186.32,0
593,5838,203.11,0
594,5808,217.49,0
595,5787,230.11,0
596,5826,241.41,0
597,5889,251.56,0
598,5954,260.78,0
599,6000,269.67,0
600,6015,279.20,0
601,5993,290.44,0
602,5956,304.17,0
603,5942,320.43,0
604,5958,338.42,0
605,5999,356.73,0
606,6054,373.83,0
607,6105,388.49,0
608,6128,400.21,0
609,6122,409.46,0
610,6106,417.49,0
611,6100,425.97,0
612,6111,436.43,0
613,6142,449.79,0
614,6185,465.91,0
615,6223,483.55,0
616,6233,500.73,0
617,6202,515.36,0
618,6150,525.76,0
619,6106,530.90,0
620,6081,530.45,0
621,6082,524.82,0
622,6122,514.86,0
623,6170,501.76,0
624,6201,487.02,0
625,6192,472.40,0
626,6152,459.64,0
627,6109,449.95,0
628,6078,443.68,0
629,6076,440.35,0
630,6109,438.81,0
631,6158,437.67,0
632,6193,435.83,0
633,6202,432.81,0
634,6165,428.78,0
635,6114,424.30,0
636,6078,419.84,0
637,6069,415.54,0
638,6083,411.22,0
639,6111,406.51,0
640,6123,400.81,0
641,6104,393.31,0
642,6054,383.04,0
643,5988,369.07,0
644,5917,350.82,0
645,5870,328.24,0
646,5858,301.74,0
647,5867,272.08,0
648,5873,240.17,0
649,5859,206.88,0
650,5808,172.84,0
651,5730,138.38,0
652,5647,103.55,0
653,5585,68.19,0
654,5560,32.12,0
655,5570,-4.62,0
656,5595,-41.63,0
657,5605,-78.09,0
658,5573,-112.92,0
659,5506,-145.22,0
660,5438,-174.63,0
661,5387,-201.42,0
662,5372,-226.14,0
663,5398,-249.14,0
664,5450,-270.28,0
665,5497,-288.83,0
666,5511,-303.72,0
667,5482,-313.90,0
668,5438,-318.89,0
669,5389,-319.08,0
670,5362,-315.69,0
671,5366,-310.45,0
672,5402,-305.29,0
673,5450,-301.88,0
674,5474,-301.11,0
675,5462,-302.88,0
676,5426,-306.30,0
677,5383,-310.07,0
678,5367,-312.94,0
679,5382,-313.90,0
680,5428,-312.31,0
681,5482,-307.88,0
682,5522,-300.72,0
683,5528,-291.26,0
684,5503,-280.16,0
685,5467,-268.20,0
686,5441,-256.03,0
687,5443,-244.14,0
688,5473,-232.79,0
689,5520,-222.11,0
690,5558,-212.26,0
691,5562,-203.47,0
692,5544,-196.06,0
693,5508,-190.24,0
694,5479,-185.96,0
695,5473,-182.69,0
696,5501,-179.57,0
697,5553,-175.65,0
698,5605,-170.19,0
699,5627,-162.85,0
700,5612,-153.77,0
701,5561,-143.65,0
702,5510,-133.64,0
703,5480,-125.10,0
704,5484,-119.18,0
705,5517,-116.48,0
706,5564,-116.94,0
707,5598,-119.88,0
708,5599,-124.23,0
709,5573,-128.74,0
710,5544,-132.20,0
711,5512,-133.60,0
712,5503,-132.30,0
713,5516,-128.26,0
714,5545,-122.29,0
715,5567,-115.98,0
716,5567,-111.26,0
717,5539,-109.76,0
718,5500,-112.29,0
719,5474,-118.52,0
720,5476,-126.98,0
721,5502,-135.42,0
722,5539,-141.49,0
723,5601,-143.54,0
724,5573,-141.07,0
725,5551,-135.00,0
726,5507,-127.50,0
727,5461,-121.21,0
728,5435,-118.11,0
729,5436,-119.00,0
730,5465,-123.51,0
731,5500,-130.58,0
732,5517,-138.97,0
733,5508,-147.64,0
734,5474,-155.90,0
735,5425,-163.32,0
736,5394,-169.69,0
737,5391,-174.83,0
738,5416,-178.66,0
739,5451,-181.19,0
740,5477,-182.62,0
741,5475,-183.44,0
742,5434,-184.33,0
743,5376,-186.08,0
744,5331,-189.38,0
745,5311,-194.69,0
746,5325,-201.97,0
747,5359,-210.69,0
748,5398,-220.04,0
749,5409,-229.10,0
750,5390,-237.10,0
751,5349,-243.58,0
752,5312,-248.34,0
753,5296,-251.35,0
754,5307,-252.58,0
755,5347,-251.99,0
756,5394,-249.59,0
757,5417,-245.61,0
758,5402,-240.46,0
759,5364,-234.88,0
760,5317,-229.78,0
761,5290,-225.98,0
762,5289,-223.87,0
763,5316,-223.31,0
764,5365,-223.76,0
765,5401,-224.51,0
766,5409,-224.86,0
767,5381,-224.29,0
768,5335,-222.61,0
769,5298,-219.94,0
770,5290,-216.66,0
771,5307,-213.16,0
772,5348,-209.75,0
773,5389,-206.62,0
774,5402,-203.89,0
775,5383,-201.63,0
776,5343,-199.89,0
777,5309,-198.64,0
778,5297,-197.71,0
779,5309,-196.66,0
780,5348,-194.90,0
781,5388,-191.98,0
782,5407,-187.85,0
783,5395,-182.94,0
784,5351,-178.03,0
785,5301,-174.09,0
786,5269,-171.92,0
787,5266,-171.93,0
788,5291,-173.98,0
789,5324,-177.54,0
790,5343,-181.96,0
791,5340,-186.82,0
792,5306,-191.98,0
793,5267,-197.43,0
794,5239,-203.06,0
795,5233,-208.37,0
796,5266,-212.55,0
797,5319,-214.67,0
798,5369,-213.94,0
799,5387,-209.89,0
800,5365,-202.63,0
801,5319,-192.90,0
802,5284,-182.02,0
803,5271,-171.47,0
804,5286,-162.35,0
805,5323,-155.10,0
806,5366,-149.61,0
807,5389,-145.52,0
808,5375,-142.43,0
809,5340,-140.09,0
810,5308,-138.36,0
811,5294,-137.04,0
812,5307,-135.59,0
813,5346,-133.19,0
814,5398,-129.05,0
815,5443,-122.67,0
816,5458,-114.01,0
817,5446,-103.35,0
818,5424,-91.11,0
819,5422,-77.64,0
820,5463,-62.87,0
821,5552,-46.12,0
822,5653,-25.94,0
823,5745,-0.46,0
824,5796,31.90,0
825,5801,71.59,0
826,5774,117.41,0
827,5739,166.52,0
828,5709,215.03,0
829,5711,258.71,0
830,5762,293.86,0
831,5831,318.21,0
832,5885,331.69,0
833,5902,336.57,0
834,5890,336.77,0
835,5877,336.60,0
836,5881,339.72,0
837,5910,348.59,0
838,5959,364.17,0
839,6008,385.90,0
840,6029,411.79,0
841,6000,438.65,0
842,5934,462.53,0
843,5854,479.35,0
844,5778,485.71,0
845,5707,479.56,0
846,5657,460.33,0
847,5624,428.51,0
848,5596,385.15,0
849,5553,331.67,0
850,5488,270.06,0
851,5409,203.04,0
852,5344,133.96,0
853,5304,66.56,0
854,5292,4.38,0
855,5304,-49.80,0
856,5318,-94.55,0
857,5307,-130.02,0
858,5269,-157.77,0
859,5207,-180.28,0
860,5145,-200.19,0
861,5110,-219.62,0
862,5113,-239.59,0
863,5144,-259.88,0
864,5193,-279.25,0
865,5225,-296.00,0
866,5225,-308.58,0
867,5198,-316.12,0
868,5164,-318.56,0
869,5151,-316.50,0
870,5165,-310.70,0
871,5202,-301.73,0
872,5252,-289.94,0
873,5296,-275.75,0
874,5311,-259.88,0
875,5293,-243.37,0
876,5253,-227.38,0
877,5215,-212.98,0
878,5191,-200.93,0
879,5185,-191.69,0
880,5189,-185.64,0
881,5184,-183.37,0
882,5163,-185.92,0
883,5129,-194.52,0
884,5113,-209.89,0
885,5154,-231.13,0
886,5270,-254.54,0
887,5519,-272.92,0
888,5915,-275.44,0
889,6431,-247.90,0
890,7047,-173.56,0
891,7688,-34.63,0
892,8333,185.13,0
893,8989,497.31,0
894,9638,906.13,0
895,10308,1406.93,0
896,10932,1986.37,0
897,11010,2622.68,0
898,11003,3283.76,0
899,10959,3925.56,0
900,10515,4496.38,0
901,9440,4944.39,0
902,7926,5220.07,0
903,6341,5273.98,0
904,4961,5059.06,0
905,4001,4543.09,0
906,3435,3726.59,0
907,3197,2656.14,0
908,3197,1424.63,0
909,3360,157.19,0
910,3628,-1012.38,0
911,3961,-1966.68,0
912,4305,-2624.93,0
913,4633,-2954.01,0
914,4910,-2969.56,0
915,5097,-2728.11,0
916,5185,-2312.78,0
917,5193,-1816.34,0
918,5159,-1324.70,0
919,5116,-903.94,0
920,5092,-593.01,0
921,5094,-402.87,0
922,5112,-321.51,0
923,5124,-322.51,0
924,5118,-374.58,0
925,5083,-449.17,0
926,5043,-524.92,0
927,5012,-588.64,0
928,5003,-633.94,0
929,5027,-658.97,0
930,5086,-664.64,0
931,5134,-653.67,0
932,5161,-630.20,0
933,5157,-599.65,0
934,5130,-568.04,0
935,5109,-540.70,0
936,5113,-520.72,0
937,5142,-507.90,0
938,5198,-499.05,0
939,5249,-489.54,0
940,5279,-475.47,0
941,5283,-455.50,0
942,5260,-431.28,0
943,5217,-406.47,0
944,5212,-384.86,0
945,5215,-368.60,0
946,5243,-357.30,0
947,5294,-348.65,0
948,5334,-339.90,0
949,5346,-329.25,0
950,5330,-316.65,0
951,5301,-303.60,0
952,5281,-292.03,0
953,5277,-283.04,0
954,5309,-276.12,0
955,5365,-269.36,0
956,5418,-260.39,0
957,5439,-247.56,0
958,5422,-230.90,0
959,5386,-212.34,0
960,5345,-194.89,0
961,5339,-181.26,0
962,5358,-172.50,0
963,5417,-167.52,0
964,5472,-163.62,0
965,5515,-157.82,0
966,5514,-148.25,0
967,5486,-134.90,0
968,5451,-119.52,0
969,5442,-104.48,0
970,5461,-91.39,0
971,5516,-80.24,0
972,5573,-69.42,0
973,5626,-56.82,0
974,5641,-41.05,0
975,5626,-22.27,0
976,5590,-2.14,0
977,5570,17.03,0
978,5577,33.42,0
979,5616,46.65,0
980,5677,57.87,0
981,5728,69.08,0
982,5754,81.99,0
983,5742,97.08,0
984,5710,113.35,0
985,5676,128.90,0
986,5664,141.93,0
987,5685,151.66,0
988,5740,158.67,0
989,5795,164.57,0
990,5838,171.17,0
991,5849,179.69,0
992,5825,190.26,0
993,5799,202.12,0
994,5786,214.16,0
995,5801,225.71,0
996,5850,236.89,0
997,5918,248.54,0
998,5968,261.69,0
999,5983,276.91,0
1000,5956,293.81,0
1001,5915,310.92,0
1002,5877,326.21,0
1003,5870,337.90,0
1004,5895,345.25,0
1005,5935,348.73,0
1006,5978,349.62,0
1007,6000,349.26,0
1008,5992,348.50,0
1009,5969,347.65,0
1010,5955,346.78,0
1011,5957,346.31,0
1012,5989,347.33,0
1013,6031,351.35,0
1014,6073,359.53,0
1015,6099,371.91,0
1016,6088,386.99,0
1017,6053,402.16,0
1018,6010,414.50,0
1019,5987,421.80,0
1020,6000,423.34,0
1021,6043,420.16,0
1022,6097,414.60,0
1023,6149,409.45,0
1024,6144,406.91,0
1025,6116,407.86,0
1026,6073,411.62,0
1027,6038,416.44,0
1028,6036,420.49,0
1029,6062,422.70,0
1030,6109,423.03,0
1031,6141,422.18,0
1032,6162,420.93,0
1033,6147,419.65,0
1034,6109,418.20,0
1035,6071,416.23,0
1036,6059,413.50,0
1037,6076,410.20,0
1038,6119,406.98,0
1039,6161,404.69,0
1040,6174,403.89,0
1041,6149,404.34,0
1042,6098,404.85,0
1043,6046,403.61,0
1044,6001,398.88,0
1045,5975,389.75,0
1046,5976,376.18,0
1047,5985,358.72,0
1048,5980,337.96,0
1049,5942,314.18,0
1050,5877,287.21,0
1051,5803,256.68,0
1052,5742,222.42,0
1053,5707,184.97,0
1054,5700,145.70,0
1055,5708,106.46,0
1056,5708,68.92,0
1057,5680,33.97,0
1058,5621,1.38,0
1059,5539,-30.01,0
1060,5468,-61.73,0
1061,5424,-95.03,0
1062,5417,-130.17,0
1063,5432,-166.33,0
1064,5452,-201.91,0
1065,5454,-235.20,0
1066,5421,-265.04,0
1067,5363,-291.13,0
1068,5315,-313.93,0
1069,5294,-334.17,0
1070,5298,-352.14,0
1071,5331,-367.43,0
1072,5373,-379.15,0
1073,5398,-386.59,0
1074,5394,-389.68,0
1075,5359,-389.22,0
1076,5317,-386.64,0
1077,5287,-383.49,0
1078,5289,-380.83,0
1079,5325,-378.90,0
1080,5375,-377.08,0
1081,5410,-374.34,0
1082,5420,-369.88,0
1083,5396,-363.58,0
1084,5356,-356.10,0
1085,5322,-348.54,0
1086,5320,-341.81,0
1087,5346,-336.21,0
1088,5397,-331.22,0
1089,5440,-325.86,0
1090,5459,-319.23,0
1091,5440,-311.08,0
1092,5399,-301.98,0
1093,5362,-293.12,0
1094,5359,-285.68,0
1095,5375,-280.05,0
1096,5423,-275.64,0
1097,5468,-271.16,0
1098,5506,-265.34,0
1099,5499,-257.52,0
1100,5468,-247.92,0
1101,5433,-237.50,0
1102,5414,-227.44,0
1103,5417,-218.56,0
1104,5452,-210.93,0
1105,5504,-204.05,0
1106,5543,-197.19,0
1107,5554,-189.80,0
1108,5534,-181.73,0
1109,5491,-173.35,0
1110,5460,-165.30,0
1111,5455,-158.15,0
1112,5478,-152.10,0
1113,5527,-146.86,0
1114,5576,-141.83,0
1115,5601,-136.38,0
1116,5581,-130.14,0
1117,5535,-123.21,0
1118,5484,-116.28,0
1119,5452,-110.42,0
1120,5450,-106.65,0
1121,5486,-105.61,0
1122,5526,-107.35,0
1123,5550,-111.33,0
1124,5548,-116.68,0
1125,5518,-122.48,0
1126,5478,-127.93,0
1127,5450,-132.38,0
1128,5451,-135.28,0
1129,5475,-136.25,0
1130,5515,-135.16,0
1131,5547,-132.33,0
1132,5547,-128.45,0
1133,5519,-124.56,0
1134,5475,-121.69,0
1135,5440,-120.61,0
1136,5431,-121.51,0
1137,5450,-123.88,0
1138,5488,-126.77,0
1139,5515,-129.19,0
1140,5521,-130.62,0
1141,5489,-131.28,0
1142,5434,-132.10,0
1143,5380,-134.29,0
1144,5354,-138.92,0
1145,5362,-146.34,0
1146,5401,-156.02,0
1147,5445,-166.64,0
1148,5467,-176.57,0
1149,5449,-184.46,0
1150,5404,-189.78,0
1151,5358,-192.92,0
1152,5324,-194.85,0
1153,5318,-196.56,0
1154,5344,-198.63,0
1155,5384,-201.22,0
1156,5407,-204.17,0
1157,5402,-207.31,0
1158,5367,-210.63,0
1159,5322,-214.39,0
1160,5289,-218.80,0
1161,5275,-223.79,0
1162,5297,-228.84,0
1163,5340,-233.21,0
1164,5372,-236.18,0
1165,5368,-237.44,0
1166,5336,-237.33,0
1167,5292,-236.90,0
1168,5247,-237.42,0
1169,5230,-239.77,0
1170,5246,-243.99,0
1171,5284,-249.28,0
1172,5313,-254.39,0
1173,5348,-258.21,0
1174,5340,-260.15,0
1175,5306,-260.15,0
1176,5263,-258.50,0
1177,5239,-255.68,0
1178,5238,-252.18,0
1179,5263,-248.33,0
1180,5311,-244.38,0
1181,5354,-240.51,0
1182,5366,-236.73,0
1183,5336,-232.85,0
1184,5287,-228.67,0
1185,5245,-224.25,0
1186,5239,-219.91,0
1187,5268,-216.07,0
1188,5319,-212.82,0
1189,5358,-209.88,0
1190,5369,-206.76,0
1191,5344,-203.15,0
1192,5287,-199.24,0
1193,5263,-195.65,0
1194,5250,-193.01,0
1195,5276,-191.41,0
1196,5319,-190.19,0
1197,5362,-188.32,0
1198,5388,-184.95,0
1199,5373,-179.82,0
1200,5330,-173.39,0
1201,5282,-166.65,0
1202,5251,-160.81,0
1203,5260,-156.78,0
1204,5294,-154.83,0
1205,5341,-154.55,0
1206,5372,-155.07,0
1207,5373,-155.50,0
1208,5343,-155.28,0
1209,5303,-154.25,0
1210,5276,-152.52,0
1211,5281,-150.18,0
1212,5316,-147.07,0
1213,5364,-142.77,0
1214,5406,-136.87,0
1215,5423,-129.29,0
1216,5407,-120.38,0
1217,5372,-110.84,0
1218,5339,-101.45,0
1219,5325,-92.74,0
1220,5344,-84.91,0
1221,5388,-77.89,0
1222,5433,-71.42,0
1223,5452,-65.29,0
1224,5443,-59.48,0
1225,5405,-54.19,0
1226,5365,-49.75,0
1227,5339,-46.40,0
1228,5342,-44.12,0
1229,5376,-42.65,0
1230,5425,-41.59,0
1231,5452,-40.55,0
1232,5452,-39.28,0
1233,5423,-37.73,0
1234,5379,-36.11,0
1235,5349,-34.66,0
1236,5349,-33.45,0
1237,5386,-32.32,0
1238,5439,-30.75,0
1239,5493,-28.09,0
1240,5513,-23.70,0
1241,5492,-17.23,0
1242,5458,-8.79,0
1243,5437,1.01,0
1244,5450,11.53,0
1245,5509,22.58,0
1246,5613,34.86,0
1247,5717,50.00,0
1248,5792,70.22,0
1249,5818,97.51,0
1250,5806,132.70,0
1251,5780,174.85,0
1252,5768,221.33,0
1253,5781,268.48,0
1254,5818,312.47,0
1255,5871,350.05,0
1256,5919,379.16,0
1257,5938,399.21,0
1258,5927,411.20,0
1259,5901,417.34,0
1260,5897,420.54,0
1261,5926,423.76,0
1262,5989,429.69,0
1263,6056,440.31,0
1264,6102,456.58,0
1265,6089,477.94,0
1266,6043,502.04,0
1267,5975,525.09,0
1268,5905,542.75,0
1269,5848,551.34,0
1270,5807,548.56,0
1271,5779,533.54,0
1272,5754,506.38,0
1273,5705,467.75,0
1274,5623,418.73,0
1275,5525,360.82,0
1276,5444,296.02,0
1277,5393,227.06,0
1278,5380,157.39,0
1279,5396,90.95,0
1280,5417,31.38,0
1281,5415,-18.80,0
1282,5381,-58.79,0
1283,5325,-89.65,0
1284,5273,-113.65,0
1285,5244,-133.33,0
1286,5241,-150.50,0
1287,5275,-165.77,0
1288,5321,-178.78,0
1289,5360,-188.75,0
1290,5366,-195.04,0
1291,5344,-197.51,0
1292,5308,-196.61,0
1293,5273,-193.12,0
1294,5288,-187.83,0
1295,5291,-181.24,0
1296,5331,-173.64,0
1297,5374,-165.48,0
1298,5394,-157.47,0
1299,5385,-150.34,0
1300,5357,-144.53,0
1301,5327,-139.98,0
1302,5301,-136.15,0
1303,5295,-132.33,0
1304,5303,-128.19,0
1305,5306,-124.27,0
1306,5280,-122.16,0
1307,5220,-124.25,0
1308,5153,-133.16,0
1309,5132,-150.73,0
1310,5174,-176.61,0
1311,5301,-207.03,0
1312,5546,-234.27,0
1313,5911,-247.10,0
1314,6384,-231.46,0
1315,6933,-171.37,0
1316,7534,-50.15,0
1317,8148,147.69,0
1318,8794,433.94,0
1319,9442,814.00,0
1320,10106,1285.03,0
1321,10756,1835.48,0
1322,10988,2445.44,0
1323,10996,3085.85,0
1324,10968,3717.26,0
1325,10666,4292.58,0
1326,9791,4763.47,0
1327,8495,5083.49,0
1328,6993,5206.24,0
1329,5585,5085.55,0
1330,4491,4684.29,0
1331,3770,3990.12,0
1332,3395,3030.67,0
1333,3294,1879.08,0
1334,3410,646.03,0
1335,3671,-539.60,0
1336,4023,-1555.00,0
1337,4389,-2305.75,0
1338,4726,-2740.93,0
1339,4994,-2858.55,0
1340,5167,-2701.10,0
1341,5242,-2343.42,0
1342,5252,-1876.00,0
1343,5237,-1387.78,0
1344,5214,-951.49,0
1345,5214,-614.43,0
1346,5232,-395.73,0
1347,5242,-289.73,0
1348,5234,-273.64,0
1349,5197,-316.97,0
1350,5142,-389.89,0
1351,5097,-468.84,0
1352,5091,-538.47,0
1353,5116,-590.77,0
1354,5165,-622.76,0
1355,5221,-634.49,0
1356,5257,-627.94,0
1357,5257,-606.72,0
1358,5229,-575.99,0
1359,5193,-542.00,0
1360,5173,-510.94,0
1361,5182,-487.30,0
1362,5222,-472.70,0
1363,5270,-465.58,0
1364,5305,-462.21,0
1365,5313,-458.45,0
1366,5291,-451.56,0
1367,5247,-441.16,0
1368,5225,-428.97,0
1369,5226,-417.54,0
1370,5263,-408.67,0
1371,5319,-402.29,0
1372,5365,-396.54,0
1373,5379,-388.84,0
1374,5355,-377.44,0
1375,5319,-362.57,0
1376,5295,-346.41,0
1377,5294,-331.87,0
1378,5321,-320.92,0
1379,5371,-313.56,0
1380,5413,-307.94,0
1381,5436,-301.41,0
1382,5424,-291.98,0
1383,5389,-279.43,0
1384,5361,-265.38,0
1385,5353,-252.37,0
1386,5377,-242.38,0
1387,5425,-235.66,0
1388,5479,-230.61,0
1389,5513,-224.55,0
1390,5519,-215.15,0
1391,5491,-201.58,0
1392,5450,-184.98,0
1393,5423,-167.97,0
1394,5426,-153.45,0
1395,5461,-143.21,0
1396,5517,-137.20,0
1397,5566,-133.61,0
1398,5589,-129.77,0
1399,5578,-123.41,0
1400,5551,-113.63,0
1401,5533,-101.06,0
1402,5530,-87.25,0
1403,5549,-73.66,0
1404,5602,-60.99,0
1405,5652,-49.04,0
1406,5687,-36.98,0
1407,5689,-23.98,0
1408,5662,-9.80,0
1409,5637,4.94,0
1410,5632,19.06,0
1411,5653,31.57,0
1412,5707,42.36,0
1413,5767,52.38,0
1414,5812,63.27,0
1415,5823,76.54,0
1416,5802,92.72,0
1417,5777,111.03,0
1418,5761,129.69,0
1419,5772,146.83,0
1420,5817,161.35,0
1421,5884,173.44,0
1422,5942,184.47,0
1423,5973,196.32,0
1424,5962,210.51,0
1425,5936,227.42,0
1426,5920,246.10,0
1427,5924,264.90,0
1428,5954,282.37,0
1429,6012,297.91,0
1430,6066,311.90,0
1431,6099,325.28,0
1432,6091,338.91,0
1433,6067,352.95,0
1434,6042,366.71,0
1435,6037,379.09,0
1436,6066,389.35,0
1437,6119,397.63,0
1438,6171,405.05,0
1439,6206,413.10,0
1440,6213,422.90,0
1441,6183,434.53,0
1442,6151,446.97,0
1443,6130,458.52,0
1444,6134,467.63,0
1445,6175,473.54,0
1446,6228,476.64,0
1447,6271,478.24,0
1448,6277,479.91,0
1449,6253,482.71,0
1450,6210,486.63,0
1451,6170,490.60,0
1452,6161,493.16,0
1453,6181,493.14,0
1454,6224,490.29,0
1455,6264,485.35,0
1456,6280,479.59,0
1457,6267,474.20,0
1458,6234,469.77,0
1459,6204,466.20,0
1460,6192,463.05,0
1461,6206,460.06,0
1462,6252,457.37,0
1463,6306,455.57,0
1464,6340,455.41,0
1465,6339,457.47,0
1466,6300,461.67,0
1467,6252,467.03,0
1468,6206,471.86,0
1469,6183,474.22,0
1470,6189,472.47,0
1471,6203,465.66,0
1472,6205,453.54,0
1473,6175,436.40,0
1474,6108,414.57,0
1475,6033,388.23,0
1476,5955,357.35,0
1477,5904,322.02,0
1478,5885,282.74,0
1479,5893,240.53,0
1480,5903,196.91,0
1481,5888,153.58,0
1482,5835,112.02,0
1483,5755,72.97,0
1484,5683,36.24,0
1485,5625,0.93,0
1486,5600,-33.94,0
1487,5608,-68.99,0
1488,5620,-104.21,0
1489,5615,-139.06,0
1490,5581,-172.83,0
1491,5523,-205.07,0
1492,5470,-235.71,0
1493,5434,-264.79,0
1494,5425,-292.11,0
1495,5445,-316.95,0
1496,5476,-338.34,0
1497,5497,-355.47,0
1498,5490,-368.08,0
1499,5449,-376.73,0
1500,5399,-382.72,0
1501,5359,-387.68,0
1502,5343,-393.00,0
1503,5363,-399.35,0
1504,5405,-406.49,0
1505,5445,-413.50,0
1506,5460,-419.18,0
1507,5438,-422.55,0
1508,5400,-423.33,0
1509,5358,-421.97,0
1510,5337,-419.34,0
1511,5342,-416.37,0
1512,5380,-413.68,0
1513,5424,-411.49,0
1514,5447,-409.62,0
1515,5446,-407.69,0
1516,5422,-405.39,0
1517,5394,-402.51,0
1518,5380,-398.84,0
1519,5391,-394.00,0
1520,5440,-387.48,0
1521,5496,-378.72,0
1522,5529,-367.28,0
1523,5529,-353.22,0
1524,5495,-337.41,0
1525,5458,-321.49,0
1526,5424,-307.37,0
1527,5415,-296.54,0
1528,5444,-289.53,0
1529,5492,-285.90,0
1530,5543,-284.34,0
1531,5557,-283.20,0
1532,5536,-281.01,0
1533,5495,-277.07,0
1534,5461,-271.62,0
1535,5447,-265.43,0
1536,5468,-259.29,0
1537,5496,-253.61,0
1538,5546,-248.41,0
1539,5568,-243.52,0
1540,5555,-238.83,0
1541,5515,-234.42,0
1542,5477,-230.63,0
1543,5457,-227.89,0
1544,5464,-226.30,0
1545,5500,-225.49,0
1546,5542,-224.66,0
1547,5565,-223.05,0
1548,5556,-220.31,0
1549,5524,-216.77,0
1550,5486,-213.35,0
1551,5460,-210.98,0
1552,5465,-210.07,0
1553,5496,-210.23,0
1554,5542,-210.40,0
1555,5578,-209.35,0
1556,5589,-206.26,0
1557,5558,-201.08,0
1558,5509,-194.59,0
1559,5461,-188.22,0
1560,5436,-183.53,0
1561,5451,-181.68,0
1562,5493,-182.99,0
1563,5541,-186.86,0
1564,5565,-191.94,0
1565,5550,-196.64,0
1566,5503,-199.80,0
1567,5459,-201.06,0
1568,5429,-200.87,0
1569,5422,-200.08,0
1570,5442,-199.53,0
1571,5480,-199.91,0
1572,5506,-201.67,0
1573,5500,-204.90,0
1574,5461,-209.42,0
1575,5414,-214.93,0
1576,5377,-221.13,0
1577,5364,-227.63,0
1578,5390,-234.00,0
1579,5430,-239.70,0
1580,5468,-244.22,0
1581,5477,-247.18,0
1582,5450,-248.46,0
1583,5404,-248.37,0
1584,5366,-247.52,0
1585,5345,-246.60,0
1586,5358,-246.10,0
1587,5394,-246.17,0
1588,5432,-246.68,0
1589,5448,-247.38,0
1590,5435,-248.09,0
1591,5396,-248.78,0
1592,5355,-249.54,0
1593,5334,-250.42,0
1594,5339,-251.30,0
1595,5373,-251.83,0
1596,5417,-251.57,0
1597,5442,-250.20,0
1598,5434,-247.72,0
1599,5396,-244.55,0
1600,5346,-241.48,0
1601,5307,-239.41,0
1602,5296,-239.03,0
1603,5316,-240.59,0
1604,5353,-243.82,0
1605,5385,-248.14,0
1606,5394,-252.85,0
1607,5371,-257.33,0
1608,5328,-261.15,0
1609,5293,-264.08,0
1610,5277,-265.99,0
1611,5295,-266.79,0
1612,5333,-266.37,0
1613,5371,-264.71,0
1614,5387,-261.96,0
1615,5370,-258.52,0
1616,5329,-255.04,0
1617,5286,-252.20,0
1618,5268,-250.51,0
1619,5283,-250.01,0
1620,5323,-250.14,0
1621,5370,-249.94,0
1622,5397,-248.44,0
1623,5389,-245.08,0
1624,5356,-240.03,0
1625,5315,-234.06,0
1626,5290,-228.17,0
1627,5283,-223.11,0
1628,5327,-219.09,0
1629,5373,-215.78,0
1630,5414,-212.46,0
1631,5425,-208.38,0
1632,5401,-203.11,0
1633,5364,-196.73,0
1634,5334,-189.72,0
1635,5323,-182.60,0
1636,5338,-175.76,0
1637,5369,-169.37,0
1638,5404,-163.64,0
1639,5420,-158.88,0
1640,5411,-155.48,0
1641,5386,-153.59,0
1642,5356,-152.96,0
1643,5343,-152.77,0
1644,5354,-151.93,0
1645,5392,-149.40,0
1646,5437,-144.59,0
1647,5445,-137.59,0
1648,5449,-129.22,0
1649,5409,-120.79,0
1650,5362,-113.74,0
1651,5327,-109.13,0
1652,5320,-107.47,0
1653,5345,-108.61,0
1654,5392,-111.86,0
1655,5425,-116.15,0
1656,5433,-120.33,0
1657,5406,-123.48,0
1658,5361,-125.15,0
1659,5327,-125.45,0
1660,5319,-124.73,0
1661,5343,-123.37,0
1662,5390,-121.46,0
1663,5433,-118.85,0
1664,5445,-115.33,0
1665,5427,-110.89,0
1666,5389,-105.93,0
1667,5355,-101.11,0
1668,5341,-97.02,0
1669,5353,-93.78,0
1670,5390,-91.09,0
1671,5435,-88.40,0
1672,5450,-85.28,0
1673,5460,-81.59,0
1674,5425,-77.57,0
1675,5380,-73.55,0
1676,5352,-69.87,0
1677,5358,-66.77,0
1678,5391,-64.25,0
1679,5443,-62.00,0
1680,5484,-59.48,0
1681,5488,-56.13,0
1682,5447,-51.69,0
1683,5407,-46.49,0
1684,5371,-41.40,0
1685,5362,-37.33,0
1686,5371,-34.82,0
1687,5436,-33.86,0
1688,5484,-33.94,0
1689,5502,-34.11,0
1690,5483,-33.30,0
1691,5441,-30.91,0
1692,5402,-27.07,0
1693,5392,-22.39,0
1694,5417,-17.49,0
1695,5477,-12.55,0
1696,5553,-7.11,0
1697,5626,-0.10,0
1698,5681,10.05,0
1699,5704,25.17,0
1700,5713,47.03,0
1701,5727,76.81,0
1702,5756,114.60,0
1703,5802,159.12,0
1704,5854,207.72,0
1705,5891,256.73,0
1706,5901,302.14,0
1707,5873,340.39,0
1708,5842,369.07,0
1709,5824,387.38,0
1710,5831,396.33,0
1711,5868,398.52,0
1712,5950,397.46,0
1713,6015,396.82,0
1714,6031,399.70,0
1715,6001,407.81,0
1716,5954,420.78,0
1717,5900,436.30,0
1718,5865,451.01,0
1719,5853,461.61,0
1720,5854,465.69,0
1721,5863,461.83,0
1722,5848,449.58,0
1723,5795,429.18,0
1724,5709,401.32,0
1725,5617,366.89,0
1726,5549,326.88,0
1727,5513,282.50,0
1728,5515,235.31,0
1729,5514,187.15,0
1730,5511,139.85,0
1731,5482,94.75,0
1732,5429,52.50,0
1733,5362,13.29,0
1734,5317,-22.92,0
1735,5289,-56.04,0
1736,5304,-85.76,0
1737,5342,-111.64,0
1738,5379,-133.23,0
1739,5386,-150.25,0
1740,5362,-162.74,0
1741,5321,-171.16,0
1742,5287,-176.33,0
1743,5277,-179.07,0
1744,5304,-179.85,0
1745,5363,-178.69,0
1746,5421,-175.20,0
1747,5446,-168.86,0
1748,5439,-159.49,0
1749,5412,-147.61,0
1750,5372,-134.33,0
1751,5358,-120.97,0
1752,5365,-108.53,0
1753,5393,-97.54,0
1754,5416,-88.16,0
1755,5406,-80.73,0
1756,5356,-76.20,0
1757,5271,-76.35,0
1758,5192,-83.44,0
1759,5179,-99.21,0
1760,5256,-123.39,0
1761,5418,-152.22,0
1762,5672,-177.84,0
1763,6015,-188.81,0
1764,6433,-171.28,0
1765,6914,-110.21,0
1766,7475,9.39,0
1767,8076,201.15,0
1768,8723,475.63,0
1769,9393,838.28,0
1770,10073,1287.54,0
1771,10720,1814.07,0
1772,10995,2400.65,0
1773,11000,3021.25,0
1774,10985,3639.58,0
1775,10738,4211.33,0
1776,9980,4690.08,0
1777,8786,5030.57,0
1778,7340,5187.06,0
1779,5916,5112.68,0
1780,4725,4766.84,0
1781,3907,4130.30,0
1782,3447,3221.15,0
1783,3303,2103.02,0
1784,3409,880.18,0
1785,3691,-319.93,0
1786,4075,-1370.76,0
1787,4481,-2170.29,0
1788,4833,-2658.10,0
1789,5089,-2822.87,0
1790,5232,-2699.92,0
1791,5297,-2360.31,0
1792,5305,-1894.65,0
1793,5294,-1395.19,0
1794,5288,-940.11,0
1795,5292,-582.88,0
1796,5299,-348.11,0
1797,5288,-233.80,0
1798,5254,-218.42,0
1799,5203,-270.25,0
1800,5163,-356.49,0
1801,5143,-449.68,0
1802,5155,-530.90,0
1803,5196,-589.89,0
1804,5243,-623.34,0
1805,5273,-632.64,0
1806,5270,-622.03,0
1807,5244,-597.42,0
1808,5209,-565.61,0
1809,5188,-533.43,0
1810,5195,-506.57,0
1811,5235,-488.44,0
1812,5289,-479.40,0
1813,5334,-476.89,0
1814,5350,-476.45,0
1815,5326,-473.61,0
1816,5284,-465.60,0
1817,5256,-452.39,0
1818,5245,-436.33,0
1819,5268,-420.77,0
1820,5319,-408.41,0
1821,5372,-400.08,0
1822,5400,-394.48,0
1823,5388,-389.00,0
1824,5355,-381.26,0
1825,5329,-370.34,0
1826,5323,-357.05,0
1827,5348,-343.23,0
1828,5395,-330.47,0
1829,5445,-319.28,0
1830,5472,-308.90,0
1831,5464,-297.92,0
1832,5424,-285.36,0
1833,5376,-271.46,0
1834,5345,-257.93,0
1835,5353,-247.17,0
1836,5387,-241.08,0
1837,5454,-239.97,0
1838,5499,-242.12,0
1839,5515,-244.36,0
1840,5494,-243.34,0
1841,5460,-237.06,0
1842,5440,-225.55,0
1843,5445,-210.60,0
1844,5474,-194.65,0
1845,5528,-179.67,0
1846,5583,-166.43,0
1847,5613,-154.39,0
1848,5608,-142.24,0
1849,5579,-128.74,0
1850,5551,-113.59,0
1851,5541,-97.54,0
1852,5559,-82.01,0
1853,5611,-68.33,0
1854,5673,-56.96,0
1855,5716,-47.18,0
1856,5721,-37.40,0
1857,5698,-26.00,0
1858,5670,-12.21,0
1859,5656,3.48,0
1860,5671,19.74,0
1861,5720,35.15,0
1862,5781,48.96,0
1863,5828,61.46,0
1864,5842,73.73,0
1865,5821,86.90,0
1866,5785,101.43,0
1867,5762,116.70,0
1868,5772,131.34,0
1869,5811,144.06,0
1870,5868,154.38,0
1871,5924,162.90,0
1872,5953,171.07,0
1873,5954,180.48,0
1874,5930,192.23,0
1875,5904,206.46,0
1876,5902,222.36,0
1877,5933,238.60,0
1878,5988,254.00,0
1879,6047,268.10,0
1880,6084,281.21,0
1881,6089,294.14,0
1882,6072,307.58,0
1883,6054,321.73,0
1884,6054,336.29,0
1885,6080,350.79,0
1886,6137,365.03,0
1887,6204,379.26,0
1888,6251,394.18,0
1889,6269,410.50,0
1890,6246,428.55,0
1891,6209,447.76,0
1892,6185,466.71,0
1893,6192,483.53,0
1894,6226,496.73,0
1895,6282,505.77,0
1896,6331,511.27,0
1897,6346,514.66,0
1898,6326,517.52,0
1899,6283,520.84,0
1900,6238,524.58,0
1901,6212,527.78,0
1902,6226,529.08,0
1903,6264,527.36,0
1904,6307,522.35,0
1905,6334,514.70,0
1906,6330,505.81,0
1907,6297,497.19,0
1908,6260,489.99,0
1909,6247,484.69,0
1910,6267,481.27,0
1911,6312,479.57,0
1912,6358,479.60,0
1913,6385,481.47,0
1914,6384,485.05,0
1915,6350,489.68,0
1916,6300,494.21,0
1917,6253,497.15,0
1918,6231,497.03,0
1919,6232,492.70,0
1920,6249,483.52,0
1921,6250,469.47,0
1922,6234,450.90,0
1923,6182,428.36,0
1924,6106,402.37,0
1925,6028,373.33,0
1926,5966,341.39,0
1927,5939,306.57,0
1928,5929,268.85,0
1929,5926,228.42,0
1930,5910,185.74,0
1931,5862,141.57,0
1932,5789,96.80,0
1933,5712,52.26,0
1934,5645,8.55,0
1935,5608,-34.04,0
1936,5602,-75.48,0
1937,5609,-115.85,0
1938,5607,-155.18,0
1939,5577,-193.28,0
1940,5519,-229.89,0
1941,5448,-264.79,0
1942,5396,-297.93,0
1943,5369,-329.34,0
1944,5376,-358.94,0
1945,5409,-386.42,0
1946,5439,-411.24,0
1947,5444,-432.64,0
1948,5416,-449.99,0
1949,5375,-462.99,0
1950,5334,-471.89,0
1951,5315,-477.37,0
1952,5325,-480.28,0
1953,5370,-481.42,0
1954,5416,-481.34,0
1955,5439,-480.15,0
1956,5428,-477.70,0
1957,5390,-473.90,0
1958,5351,-468.98,0
1959,5334,-463.46,0
1960,5348,-457.85,0
1961,5385,-452.35,0
1962,5440,-446.75,0
1963,5473,-440.57,0
1964,5480,-433.29,0
1965,5457,-424.65,0
1966,5421,-414.77,0
1967,5396,-404.10,0
1968,5396,-393.23,0
1969,5427,-382.68,0
1970,5473,-372.71,0
1971,5507,-363.35,0
1972,5516,-354.56,0
1973,5490,-346.38,0
1974,5450,-339.08,0
1975,5420,-333.03,0
1976,5408,-328.49,0
1977,5423,-325.32,0
1978,5459,-323.05,0
1979,5497,-321.10,0
1980,5517,-319.04,0
1981,5512,-316.61,0
1982,5488,-313.73,0
1983,5459,-310.31,0
1984,5450,-306.12,0
1985,5474,-300.78,0
1986,5518,-293.75,0
1987,5566,-284.57,0
1988,5599,-273.06,0
1989,5597,-259.57,0
1990,5564,-245.02,0
1991,5522,-230.75,0
1992,5495,-218.18,0
1993,5494,-208.41,0
1994,5522,-201.79,0
1995,5567,-197.97,0
1996,5603,-196.04,0
1997,5615,-194.92,0
1998,5591,-193.67,0
1999,5548,-191.74,0
2000,5515,-189.10,0
2001,5505,-186.07,0
2002,5523,-182.97,0
2003,5559,-180.01,0
2004,5590,-177.23,0
2005,5602,-174.72,0
2006,5583,-172.70,0
2007,5535,-171.57,0
2008,5489,-171.78,0
2009,5465,-173.69,0
2010,5469,-177.35,0
2011,5496,-182.41,0
2012,5535,-188.17,0
2013,5562,-193.88,0
2014,5555,-198.86,0
2015,5520,-202.69,0
2016,5479,-205.28,0
2017,5450,-206.85,0
2018,5443,-207.66,0
2019,5467,-207.98,0
2020,5503,-207.98,0
2021,5530,-207.82,0
2022,5518,-207.73,0
2023,5481,-208.13,0
2024,5437,-209.68,0
2025,5404,-212.99,0
2026,5397,-218.17,0
2027,5415,-224.61,0
2028,5450,-231.17,0
2029,5483,-236.62,0
2030,5497,-240.18,0
2031,5483,-241.63,0
2032,5447,-241.32,0
2033,5416,-239.83,0
2034,5400,-237.67,0
2035,5412,-235.07,0
2036,5444,-232.02,0
2037,5479,-228.42,0
2038,5500,-224.34,0
2039,5488,-220.12,0
2040,5451,-216.35,0
2041,5403,-213.69,0
2042,5365,-212.70,0
2043,5356,-213.71,0
2044,5376,-216.71,0
2045,5395,-221.42,0
2046,5441,-227.42,0
2047,5443,-234.14,0
2048,5413,-240.86,0
2049,5370,-246.86,0
2050,5336,-251.63,0
2051,5329,-255.00,0
2052,5347,-256.90,0
2053,5381,-257.32,0
2054,5411,-256.38,0
2055,5421,-254.42,0
2056,5401,-252.07,0
2057,5361,-250.03,0
2058,5328,-248.90,0
2059,5311,-248.92,0
2060,5323,-249.81,0
2061,5360,-250.87,0
2062,5401,-251.30,0
2063,5427,-250.45,0
2064,5416,-248.03,0
2065,5383,-244.23,0
2066,5341,-239.65,0
2067,5316,-235.06,0
2068,5319,-231.11,0
2069,5346,-228.02,0
2070,5398,-225.63,0
2071,5433,-223.47,0
2072,5433,-220.95,0
2073,5393,-217.67,0
2074,5340,-213.80,0
2075,5307,-210.12,0
2076,5300,-207.59,0
2077,5328,-206.76,0
2078,5378,-207.41,0
2079,5417,-208.64,0
2080,5423,-209.26,0
2081,5399,-208.44,0
2082,5357,-206.09,0
2083,5320,-202.83,0
2084,5307,-199.48,0
2085,5330,-196.61,0
2086,5370,-194.22,0
2087,5412,-191.85,0
2088,5433,-188.88,0
2089,5426,-184.97,0
2090,5389,-180.21,0
2091,5353,-175.07,0
2092,5332,-170.08,0
2093,5340,-165.60,0
2094,5381,-161.57,0
2095,5431,-157.58,0
2096,5463,-153.06,0
2097,5468,-147.54,0
2098,5445,-140.93,0
2099,5409,-133.51,0
2100,5379,-125.79,0
2101,5373,-118.27,0
2102,5393,-111.28,0
2103,5445,-105.01,0
2104,5487,-99.46,0
2105,5501,-94.43,0
2106,5479,-89.63,0
2107,5435,-84.96,0
2108,5395,-80.59,0
2109,5382,-76.89,0
2110,5391,-74.13,0
2111,5435,-72.34,0
2112,5483,-71.22,0
2113,5514,-70.26,0
2114,5521,-68.81,0
2115,5482,-66.21,0
2116,5446,-62.06,0
2117,5432,-56.37,0
2118,5434,-49.45,0
2119,5460,-41.76,0
2120,5507,-33.84,0
2121,5526,-26.34,0
2122,5526,-19.94,0
2123,5483,-15.32,0
2124,5437,-13.04,0
2125,5420,-13.41,0
2126,5422,-16.16,0
2127,5451,-20.21,0
2128,5497,-23.99,0
2129,5541,-26.01,0
2130,5558,-25.30,0
2131,5533,-21.66,0
2132,5489,-15.62,0
2133,5456,-8.32,0
2134,5444,-1.07,0
2135,5467,5.14,0
2136,5512,9.98,0
2137,5557,13.73,0
2138,5583,17.00,0
2139,5575,20.41,0
2140,5541,24.31,0
2141,5498,28.69,0
2142,5472,33.28,0
2143,5475,37.64,0
2144,5505,41.37,0
2145,5548,44.17,0
2146,5581,45.92,0
2147,5584,46.74,0
2148,5558,46.89,0
2149,5514,46.73,0
2150,5483,46.59,0
2151,5473,46.70,0
2152,5498,47.13,0
2153,5538,47.87,0
2154,5576,48.79,0
2155,5583,49.72,0
2156,5557,50.49,0
2157,5514,50.81,0
2158,5481,50.42,0
2159,5473,49.23,0
2160,5497,47.58,0
2161,5542,46.16,0
2162,5585,45.82,0
2163,5606,47.22,0
2164,5590,50.44,0
2165,5552,55.02,0
2166,5519,60.05,0
2167,5495,64.60,0
2168,5500,68.14,0
2169,5537,70.58,0
2170,5603,72.17,0
2171,5673,73.63,0
2172,5724,76.26,0
2173,5747,82.02,0
2174,5758,93.22,0
2175,5772,111.90,0
2176,5797,139.18,0
2177,5829,174.73,0
2178,5867,216.49,0
2179,5897,260.74,0
2180,5901,302.80,0
2181,5886,338.15,0
2182,5849,363.57,0
2183,5819,377.88,0
2184,5810,382.00,0
2185,5829,378.51,0
2186,5885,370.82,0
2187,5928,362.37,0
2188,5959,355.97,0
2189,5923,353.25,0
2190,5879,354.31,0
2191,5830,357.74,0
2192,5791,361.27,0
2193,5774,362.62,0
2194,5788,360.08,0
2195,5817,352.75,0
2196,5823,340.54,0
2197,5784,324.06,0
2198,5712,304.08,0
2199,5632,281.04,0
2200,5574,254.97,0
2201,5545,225.82,0
2202,5552,194.03,0
2203,5569,160.62,0
2204,5580,127.07,0
2205,5564,94.76,0
2206,5519,64.63,0
2207,5463,37.02,0
2208,5412,11.81,0
2209,5385,-11.24,0
2210,5387,-32.27,0
2211,5421,-51.29,0
2212,5457,-68.20,0
2213,5469,-82.85,0
2214,5451,-95.07,0
2215,5417,-104.89,0
2216,5386,-112.45,0
2217,5376,-117.81,0
2218,5395,-120.78,0
2219,5442,-120.96,0
2220,5493,-117.91,0
2221,5521,-111.50,0
2222,5520,-102.13,0
2223,5491,-90.81,0
2224,5451,-78.95,0
2225,5416,-67.97,0
2226,5398,-58.98,0
2227,5399,-52.79,0
2228,5399,-50.11,0
2229,5380,-51.79,0
2230,5341,-59.05,0
2231,5309,-73.13,0
2232,5315,-94.46,0
2233,5379,-121.25,0
2234,5536,-148.36,0
2235,5828,-167.00,0
2236,6248,-164.92,0
2237,6771,-127.21,0
2238,7378,-37.36,0
2239,8016,121.02,0
2240,8654,361.96,0
2241,9286,694.55,0
2242,9920,1120.43,0
2243,10542,1632.52,0
2244,10978,2214.78,0
2245,11004,2841.94,0
2246,10999,3477.99,0
2247,10922,4077.18,0
2248,10392,4590.34,0
2249,9346,4971.63,0
2250,7933,5178.98,0
2251,6444,5171.14,0
2252,5149,4909.72,0
2253,4236,4370.07,0
2254,3709,3557.08,0
2255,3508,2517.05,0
2256,3549,1338.26,0
2257,3756,138.44,0
2258,4063,-956.79,0
2259,4413,-1837.56,0
2260,4754,-2429.16,0
2261,5054,-2703.09,0
2262,5284,-2678.24,0
2263,5416,-2413.04,0
2264,5458,-1991.21,0
2265,5432,-1504.60,0
2266,5380,-1036.79,0
2267,5324,-650.33,0
2268,5292,-379.99,0
2269,5292,-232.56,0
2270,5304,-192.31,0
2271,5304,-229.85,0
2272,5284,-311.72,0
2273,5247,-408.22,0
2274,5212,-497.94,0
2275,5200,-568.55,0
2276,5215,-615.12,0
2277,5257,-637.43,0
2278,5305,-637.92,0
2279,5332,-620.59,0
2280,5330,-590.90,0
2281,5301,-555.62,0
2282,5260,-522.05,0
2283,5232,-496.49,0
2284,5237,-482.50,0
2285,5272,-479.76,0
2286,5326,-484.33,0
2287,5371,-490.23,0
2288,5391,-491.90,0
2289,5376,-486.22,0
2290,5347,-473.45,0
2291,5324,-456.55,0
2292,5315,-439.31,0
2293,5338,-424.44,0
2294,5380,-412.47,0
2295,5426,-402.06,0
2296,5456,-391.11,0
2297,5456,-378.20,0
2298,5427,-363.43,0
2299,5395,-348.43,0
2300,5381,-335.37,0
2301,5403,-325.68,0
2302,5447,-319.00,0
2303,5505,-313.23,0
2304,5546,-305.48,0
2305,5541,-293.58,0
2306,5509,-277.34,0
2307,5464,-258.90,0
2308,5440,-241.78,0
2309,5443,-229.13,0
2310,5484,-222.17,0
2311,5546,-219.57,0
2312,5603,-218.12,0
2313,5633,-214.18,0
2314,5621,-205.28,0
2315,5587,-191.11,0
2316,5556,-173.47,0
2317,5551,-155.23,0
2318,5574,-138.79,0
2319,5619,-125.11,0
2320,5660,-113.62,0
2321,5685,-103.04,0
2322,5681,-92.45,0
2323,5651,-81.91,0
2324,5620,-72.41,0
2325,5611,-65.12,0
2326,5629,-60.46,0
2327,5677,-57.54,0
2328,5733,-54.36,0
2329,5770,-48.60,0
2330,5782,-38.76,0
2331,5762,-24.90,0
2332,5737,-8.59,0
2333,5732,7.84,0
2334,5752,22.60,0
2335,5797,35.35,0
2336,5852,47.27,0
2337,5903,60.26,0
2338,5925,75.85,0
2339,5917,94.31,0
2340,5897,114.51,0
2341,5884,134.48,0
2342,5886,152.46,0
2343,5921,167.72,0
2344,5977,180.87,0
2345,6023,193.39,0
2346,6069,206.84,0
2347,6068,222.06,0
2348,6042,238.82,0
2349,6013,255.90,0
2350,6004,271.63,0
2351,6024,284.77,0
2352,6064,295.12,0
2353,6112,303.51,0
2354,6149,311.26,0
2355,6159,319.37,0
2356,6145,328.14,0
2357,6123,337.09,0
2358,6115,345.51,0
2359,6132,353.06,0
2360,6182,360.19,0
2361,6245,368.13,0
2362,6286,378.37,0
2363,6298,391.86,0
2364,6280,408.21,0
2365,6245,425.66,0
2366,6211,441.64,0
2367,6204,453.82,0
2368,6228,460.95,0
2369,6277,463.31,0
2370,6321,462.44,0
2371,6345,460.47,0
2372,6337,459.16,0
2373,6297,459.25,0
2374,6258,460.40,0
2375,6245,461.53,0
2376,6259,461.66,0
2377,6301,460.49,0
2378,6348,458.65,0
2379,6377,457.20,0
2380,6374,456.97,0
2381,6340,458.06,0
2382,6298,459.70,0
2383,6273,460.58,0
2384,6274,459.63,0
2385,6307,456.53,0
2386,6351,451.95,0
2387,6389,447.10,0
2388,6388,443.17,0
2389,6350,440.62,0
2390,6291,438.86,0
2391,6239,436.33,0
2392,6207,431.17,0
2393,6207,421.98,0
2394,6229,408.34,0
2395,6245,390.78,0
2396,6228,370.37,0
2397,6184,348.04,0
2398,6109,324.11,0
2399,6028,298.17,0
2400,5964,269.49,0
2401,5932,237.43,0
2402,5919,201.84,0
2403,5915,163.15,0
2404,5888,122.10,0
2405,5828,79.32,0
2406,5744,35.01,0
2407,5660,-11.10,0
2408,5593,-59.30,0
2409,5560,-109.31,0
2410,5559,-160.02,0
2411,5575,-209.54,0
2412,5580,-255.76,0
2413,5555,-297.01,0
2414,5505,-332.61,0
2415,5448,-363.02,0
2416,5401,-389.38,0
2417,5382,-412.84,0
2418,5386,-434.00,0
2419,5412,-452.83,0
2420,5437,-468.99,0
2421,5436,-482.29,0
2422,5406,-492.98,0
2423,5359,-501.83,0
2424,5319,-509.88,0
2425,5296,-517.92,0
2426,5307,-526.09,0
2427,5341,-533.84,0
2428,5375,-540.17,0
2429,5392,-544.20,0
2430,5379,-545.61,0
2431,5340,-544.86,0
2432,5305,-543.01,0
2433,5292,-541.11,0
2434,5307,-539.60,0
2435,5342,-538.02,0
2436,5375,-535.28,0
2437,5412,-530.37,0
2438,5409,-523.01,0
2439,5382,-513.78,0
2440,5354,-503.88,0
2441,5339,-494.54,0
2442,5343,-486.40,0
2443,5372,-479.14,0
2444,5421,-471.79,0
2445,5465,-463.26,0
2446,5479,-452.86,0
2447,5456,-440.58,0
2448,5414,-427.25,0
2449,5379,-414.32,0
2450,5366,-403.25,0
2451,5377,-394.92,0
2452,5424,-389.35,0
2453,5470,-385.75,0
2454,5498,-382.86,0
2455,5491,-379.46,0
2456,5458,-374.78,0
2457,5418,-368.75,0
2458,5389,-361.89,0
2459,5396,-354.95,0
2460,5436,-348.53,0
2461,5493,-342.74,0
2462,5521,-337.19,0
2463,5526,-331.23,0
2464,5500,-324.46,0
2465,5463,-317.02,0
2466,5430,-309.40,0
2467,5429,-302.18,0
2468,5460,-295.67,0
2469,5506,-289.80,0
2470,5553,-284.11,0
2471,5559,-278.03,0
2472,5536,-271.27,0
2473,5491,-264.06,0
2474,5451,-257.20,0
2475,5437,-251.58,0
2476,5458,-247.78,0
2477,5503,-245.68,0
2478,5549,-244.49,0
2479,5562,-243.14,0
2480,5543,-240.85,0
2481,5504,-237.56,0
2482,5451,-233.93,0
2483,5431,-230.99,0
2484,5416,-229.57,0
2485,5456,-230.02,0
2486,5500,-232.14,0
2487,5532,-235.25,0
2488,5526,-238.38,0
2489,5491,-240.74,0
2490,5446,-242.05,0
2491,5413,-242.53,0
2492,5397,-242.61,0
2493,5415,-242.70,0
2494,5449,-243.06,0
2495,5474,-243.91,0
2496,5477,-245.42,0
2497,5449,-247.82,0
2498,5402,-251.31,0
2499,5365,-255.98,0
2500,5352,-261.61,0
2501,5378,-267.55,0
2502,5408,-272.75,0
2503,5445,-276.15,0
2504,5443,-277.19,0
2505,5442,-276.15,0
2506,5392,-274.01,0
2507,5352,-271.95,0
2508,5334,-270.90,0
2509,5341,-271.16,0
2510,5381,-272.33,0
2511,5423,-273.50,0
2512,5455,-273.66,0
2513,5451,-272.12,0
2514,5421,-268.76,0
2515,5365,-264.06,0
2516,5322,-258.95,0
2517,5311,-254.62,0
2518,5336,-252.06,0
2519,5379,-251.75,0
2520,5411,-253.42,0
2521,5414,-256.34,0
2522,5383,-259.66,0
2523,5341,-262.86,0
2524,5308,-265.74,0
2525,5293,-268.19,0
2526,5309,-270.02,0
2527,5350,-270.90,0
2528,5394,-270.54,0
2529,5411,-268.77,0
2530,5393,-265.69,0
2531,5353,-261.72,0
2532,5310,-257.57,0
2533,5287,-253.96,0
2534,5291,-251.35,0
2535,5317,-249.78,0
2536,5348,-249.07,0
2537,5366,-249.04,0
2538,5356,-249.72,0
2539,5325,-251.31,0
2540,5285,-253.96,0
2541,5261,-257.51,0
2542,5264,-261.34,0
2543,5298,-264.43,0
2544,5350,-265.69,0
2545,5398,-264.19,0
2546,5411,-259.41,0
2547,5385,-251.42,0
2548,5340,-240.94,0
2549,5303,-229.32,0
2550,5290,-218.10,0
2551,5302,-208.56,0
2552,5337,-201.42,0
2553,5374,-196.85,0
2554,5384,-194.65,0
2555,5362,-194.44,0
2556,5316,-195.82,0
2557,5274,-198.55,0
2558,5261,-202.31,0
2559,5279,-206.53,0
2560,5324,-210.22,0
2561,5371,-212.15,0
2562,5396,-211.30,0
2563,5391,-207.31,0
2564,5353,-200.65,0
2565,5313,-192.52,0
2566,5289,-184.33,0
2567,5281,-177.22,0
2568,5310,-171.72,0
2569,5353,-167.87,0
2570,5391,-165.32,0
2571,5395,-163.57,0
2572,5369,-162.10,0
2573,5332,-160.61,0
2574,5296,-158.98,0
2575,5293,-157.12,0
2576,5313,-154.88,0
2577,5356,-151.99,0
2578,5393,-148.23,0
2579,5408,-143.63,0
2580,5384,-138.52,0
2581,5337,-133.55,0
2582,5297,-129.54,0
2583,5284,-127.19,0
2584,5296,-126.61,0
2585,5337,-127.27,0
2586,5397,-128.14,0
2587,5438,-128.03,0
2588,5441,-125.81,0
2589,5413,-120.71,0
2590,5376,-112.64,0
2591,5352,-102.14,0
2592,5355,-90.23,0
2593,5381,-77.97,0
2594,5423,-66.38,0
2595,5456,-56.26,0
2596,5458,-48.20,0
2597,5431,-42.54,0
2598,5388,-39.33,0
2599,5357,-38.35,0
2600,5349,-39.03,0
2601,5369,-40.52,0
2602,5408,-41.86,0
2603,5447,-42.32,0
2604,5458,-41.61,0
2605,5436,-39.87,0
2606,5395,-37.69,0
2607,5360,-35.77,0
2608,5345,-34.64,0
2609,5356,-34.32,0
2610,5395,-34.40,0
2611,5444,-34.23,0
2612,5469,-33.24,0
2613,5456,-31.11,0
2614,5421,-27.96,0
2615,5389,-24.29,0
2616,5369,-20.69,0
2617,5379,-17.40,0
2618,5416,-14.16,0
2619,5461,-10.45,0
2620,5489,-5.78,0
2621,5485,-0.10,0
2622,5447,6.05,0
2623,5402,11.64,0
2624,5370,15.53,0
2625,5360,17.01,0
2626,5379,16.10,0
2627,5421,13.42,0
2628,5465,9.95,0
2629,5486,6.67,0
2630,5477,4.48,0
2631,5449,4.04,0
2632,5420,5.75,0
2633,5407,9.78,0
2634,5421,16.05,0
2635,5459,24.15,0
2636,5498,33.40,0
2637,5517,42.83,0
2638,5505,51.37,0
2639,5464,58.01,0
2640,5422,62.01,0
2641,5399,63.06,0
2642,5404,61.50,0
2643,5434,58.25,0
2644,5484,54.54,0
2645,5526,51.58,0
2646,5538,50.31,0
2647,5522,51.34,0
2648,5492,54.90,0
2649,5463,60.87,0
2650,5460,68.85,0
2651,5493,78.25,0
2652,5561,88.46,0
2653,5635,99.18,0
2654,5696,110.74,0
2655,5729,124.20,0
2656,5739,141.12,0
2657,5737,163.08,0
2658,5749,191.04,0
2659,5777,224.87,0
2660,5824,263.16,0
2661,5871,303.32,0
2662,5889,342.12,0
2663,5867,376.23,0
2664,5821,402.79,0
2665,5783,419.83,0
2666,5768,426.80,0
2667,5781,424.88,0
2668,5825,416.88,0
2669,5879,406.44,0
2670,5923,397.12,0
2671,5923,391.54,0
2672,5869,390.80,0
2673,5792,394.13,0
2674,5735,399.02,0
2675,5712,402.02,0
2676,5717,400.08,0
2677,5743,391.52,0
2678,5762,376.29,0
2679,5749,355.61,0
2680,5700,331.26,0
2681,5629,304.91,0
2682,5559,277.67,0
2683,5512,250.07,0
2684,5492,222.25,0
2685,5495,194.14,0
2686,5504,165.56,0
2687,5493,136.26,0
2688,5461,106.02,0
2689,5401,74.83,0
2690,5350,43.06,0
2691,5324,11.57,0
2692,5332,-18.22,0
2693,5371,-44.44,0
2694,5419,-65.26,0
2695,5448,-79.37,0
2696,5450,-86.44,0
2697,5424,-87.24,0
2698,5390,-83.38,0
2699,5369,-76.71,0
2700,5371,-68.76,0
2701,5404,-60.43,0
2702,5457,-52.05,0
2703,5500,-43.57,0
2704,5508,-34.90,0
2705,5481,-26.15,0
2706,5434,-17.80,0
2707,5380,-10.70,0
2708,5334,-5.86,0
2709,5305,-4.33,0
2710,5292,-7.30,0
2711,5311,-16.08,0
2712,5361,-31.53,0
2713,5423,-52.95,0
2714,5517,-76.87,0
2715,5700,-96.48,0
2716,6008,-101.65,0
2717,6464,-79.09,0
2718,7053,-13.00,0
2719,7739,113.74,0
2720,8444,317.45,0
2721,9140,610.75,0
2722,9780,999.65,0
2723,10383,1481.34,0
2724,10907,2043.56,0
2725,11001,2664.58,0
2726,11002,3312.15,0
2727,10976,3942.91,0
2728,10719,4506.74,0
2729,9899,4954.35,0
2730,8591,5240.79,0
2731,7047,5323.31,0
2732,5584,5160.74,0
2733,4459,4721.22,0
2734,3757,3997.23,0
2735,3454,3020.00,0
2736,3457,1864.58,0
2737,3649,641.47,0
2738,3943,-522.61,0
2739,4265,-1508.71,0
2740,4569,-2227.08,0
2741,4845,-2631.30,0
2742,5090,-2722.71,0
2743,5287,-2545.53,0
2744,5420,-2174.79,0
2745,5475,-1700.32,0
2746,5457,-1210.25,0
2747,5388,-777.10,0
2748,5304,-448.52,0
2749,5232,-244.05,0
2750,5201,-157.73,0
2751,5209,-165.32,0
2752,5239,-233.70,0
2753,5256,-329.87,0
2754,5263,-427.42,0
2755,5235,-509.40,0
2756,5200,-567.92,0
2757,5173,-601.62,0
2758,5175,-612.87,0
2759,5204,-605.65,0
2760,5257,-584.68,0
2761,5309,-555.22,0
2762,5327,-522.96,0
2763,5313,-493.38,0
2764,5273,-470.77,0
2765,5244,-457.12,0
2766,5232,-451.51,0
2767,5254,-450.52,0
2768,5299,-449.63,0
2769,5346,-445.16,0
2770,5374,-435.70,0
2771,5370,-422.48,0
2772,5332,-408.37,0
2773,5294,-396.38,0
2774,5275,-388.09,0
2775,5287,-382.98,0
2776,5331,-378.83,0
2777,5383,-373.00,0
2778,5422,-363.88,0
2779,5425,-351.70,0
2780,5405,-338.37,0
2781,5376,-326.25,0
2782,5356,-316.82,0
2783,5361,-309.70,0
2784,5400,-302.87,0
2785,5459,-293.80,0
2786,5517,-280.81,0
2787,5544,-263.84,0
2788,5532,-244.43,0
2789,5494,-224.98,0
2790,5457,-207.66,0
2791,5444,-193.52,0
2792,5466,-182.18,0
2793,5513,-172.27,0
2794,5567,-162.33,0
2795,5602,-151.68,0
2796,5595,-140.73,0
2797,5564,-130.62,0
2798,5525,-122.51,0
2799,5514,-116.72,0
2800,5528,-112.35,0
2801,5579,-107.50,0
2802,5635,-100.23,0
2803,5684,-89.46,0
2804,5695,-75.59,0
2805,5667,-60.19,0
2806,5633,-45.32,0
2807,5616,-32.55,0
2808,5625,-22.13,0
2809,5661,-12.93,0
2810,5722,-3.16,0
2811,5779,8.58,0
2812,5805,22.58,0
2813,5792,38.00,0
2814,5761,53.32,0
2815,5740,67.17,0
2816,5743,79.13,0
2817,5772,90.01,0
2818,5828,101.37,0
2819,5883,114.55,0
2820,5917,129.88,0
2821,5911,146.44,0
2822,5879,162.45,0
2823,5847,176.13,0
2824,5831,186.54,0
2825,5851,194.05,0
2826,5906,200.15,0
2827,5973,206.72,0
2828,6023,215.24,0
2829,6044,226.26,0
2830,6031,239.36,0
2831,6007,253.59,0
2832,5991,268.14,0
2833,5996,282.80,0
2834,6040,297.92,0
2835,6098,313.96,0
2836,6147,330.97,0
2837,6170,348.27,0
2838,6161,364.57,0
2839,6139,378.48,0
2840,6124,389.31,0
2841,6125,397.56,0
2842,6157,404.84,0
2843,6211,413.12,0
2844,6264,423.78,0
2845,6296,436.96,0
2846,6293,451.58,0
2847,6268,465.79,0
2848,6237,477.87,0
2849,6218,487.00,0
2850,6232,493.43,0
2851,6275,498.22,0
2852,6324,502.57,0
2853,6354,507.19,0
2854,6335,511.90,0
2855,6291,515.55,0
2856,6240,516.50,0
2857,6207,513.39,0
2858,6208,505.96,0
2859,6248,495.33,0
2860,6306,483.63,0
2861,6352,473.24,0
2862,6372,465.91,0
2863,6351,462.29,0
2864,6310,461.95,0
2865,6280,463.81,0
2866,6263,466.73,0
2867,6281,469.96,0
2868,6325,473.10,0
2869,6364,475.81,0
2870,6375,477.60,0
2871,6341,477.66,0
2872,6268,474.83,0
2873,6204,467.86,0
2874,6152,455.80,0
2875,6128,438.47,0
2876,6136,416.45,0
2877,6147,390.76,0
2878,6138,362.30,0
2879,6108,331.57,0
2880,6036,298.63,0
2881,5953,263.45,0
2882,5880,226.19,0
2883,5825,187.33,0
2884,5798,147.50,0
2885,5801,107.10,0
2886,5796,66.09,0
2887,5768,24.15,0
2888,5698,-19.05,0
2889,5615,-63.63,0
2890,5543,-109.32,0
2891,5499,-155.29,0
2892,5489,-200.19,0
2893,5508,-242.43,0
2894,5515,-280.72,0
2895,5507,-314.53,0
2896,5463,-344.33,0
2897,5407,-371.30,0
2898,5358,-396.69,0
2899,5319,-421.10,0
2900,5323,-444.13,0
2901,5352,-464.74,0
2902,5390,-481.76,0
2903,5412,-494.49,0
2904,5404,-503.06,0
2905,5362,-508.30,0
2906,5321,-511.43,0
2907,5300,-513.48,0
2908,5308,-514.79,0
2909,5343,-514.89,0
2910,5392,-512.88,0
2911,5433,-508.07,0
2912,5442,-500.46,0
2913,5419,-490.81,0
2914,5383,-480.30,0
2915,5355,-470.10,0
2916,5354,-460.76,0
2917,5374,-452.13,0
2918,5418,-443.60,0
2919,5460,-434.65,0
2920,5481,-425.22,0
2921,5464,-415.78,0
2922,5431,-407.05,0
2923,5398,-399.65,0
2924,5381,-393.68,0
2925,5389,-388.66,0
2926,5425,-383.77,0
2927,5468,-378.35,0
2928,5496,-372.24,0
2929,5491,-365.78,0
2930,5450,-359.68,0
2931,5411,-354.64,0
2932,5386,-351.13,0
2933,5395,-348.99,0
2934,5440,-347.41,0
2935,5496,-345.13,0
2936,5535,-340.92,0
2937,5537,-334.09,0
2938,5501,-324.90,0
2939,5451,-314.53,0
2940,5412,-304.68,0
2941,5402,-296.84,0
2942,5421,-291.76,0
2943,5460,-289.31,0
2944,5498,-288.82,0
2945,5509,-289.50,0
2946,5484,-290.80,0
2947,5440,-292.53,0
2948,5400,-294.68,0
2949,5386,-297.17,0
2950,5410,-299.53,0
2951,5452,-300.90,0
2952,5503,-300.30,0
2953,5530,-297.07,0
2954,5522,-291.26,0
2955,5485,-283.58,0
2956,5447,-275.22,0
2957,5426,-267.28,0
2958,5433,-260.37,0
2959,5468,-254.40,0
2960,5513,-248.84,0
2961,5544,-243.22,0
2962,5533,-237.42,0
2963,5495,-231.92,0
2964,5444,-227.67,0
2965,5400,-225.63,0
2966,5379,-226.36,0
2967,5393,-229.78,0
2968,5426,-235.33,0
2969,5467,-242.24,0
2970,5484,-249.71,0
2971,5459,-256.96,0
2972,5413,-263.37,0
2973,5369,-268.57,0
2974,5349,-272.43,0
2975,5356,-274.95,0
2976,5391,-276.14,0
2977,5426,-276.17,0
2978,5445,-275.46,0
2979,5426,-274.65,0
2980,5379,-274.53,0
2981,5328,-275.82,0
2982,5293,-278.95,0
2983,5284,-283.84,0
2984,5309,-290.00,0
2985,5350,-296.70,0
2986,5381,-303.24,0
2987,5383,-309.08,0
2988,5348,-313.92,0
2989,5303,-317.67,0
2990,5269,-320.40,0
2991,5261,-322.15,0
2992,5281,-322.84,0
2993,5319,-322.31,0
2994,5357,-320.61,0
2995,5365,-318.05,0
2996,5336,-315.23,0
2997,5283,-312.92,0
2998,5245,-311.86,0
2999,5222,-312.46,0
3000,5237,-314.56,0
3001,5276,-317.45,0
3002,5317,-320.19,0
3003,5339,-321.99,0
3004,5333,-322.43,0
3005,5296,-321.54,0
3006,5254,-319.61,0
3007,5225,-316.97,0
3008,5223,-313.89,0
3009,5250,-310.52,0
3010,5291,-307.07,0
3011,5319,-303.81,0
3012,5317,-301.09,0
3013,5294,-299.27,0
3014,5257,-298.46,0
3015,5230,-298.39,0
3016,5226,-298.33,0
3017,5253,-297.30,0
3018,5293,-294.49,0
3019,5324,-289.62,0
3020,5331,-283.10,0
3021,5311,-275.95,0
3022,5268,-269.44,0
3023,5237,-264.54,0
3024,5226,-261.56,0
3025,5245,-260.00,0
3026,5283,-258.83,0
3027,5322,-256.98,0
3028,5348,-253.81,0
3029,5334,-249.31,0
3030,5297,-243.98,0
3031,5257,-238.55,0
3032,5239,-233.67,0
3033,5247,-229.57,0
3034,5284,-225.97,0
3035,5332,-222.30,0
3036,5360,-218.01,0
3037,5356,-212.89,0
3038,5325,-207.18,0
3039,5288,-201.49,0
3040,5264,-196.43,0
3041,5261,-192.21,0
3042,5291,-188.51,0
3043,5336,-184.74,0
3044,5379,-180.33,0
3045,5389,-174.99,0
3046,5360,-168.81,0
3047,5314,-162.32,0
3048,5271,-156.34,0
3049,5255,-151.70,0
3050,5269,-148.85,0
3051,5304,-147.74,0
3052,5343,-147.96,0
3053,5369,-148.94,0
3054,5358,-150.15,0
3055,5318,-151.13,0
3056,5276,-151.59,0
3057,5255,-151.42,0
3058,5266,-150.55,0
3059,5314,-148.81,0
3060,5366,-145.88,0
3061,5400,-141.37,0
3062,5399,-135.10,0
3063,5360,-127.32,0
3064,5324,-118.80,0
3065,5304,-110.55,0
3066,5311,-103.22,0
3067,5340,-96.83,0
3068,5384,-90.85,0
3069,5419,-84.75,0
3070,5423,-78.34,0
3071,5399,-71.91,0
3072,5354,-66.11,0
3073,5321,-61.61,0
3074,5315,-58.76,0
3075,5335,-57.30,0
3076,5384,-56.49,0
3077,5432,-55.36,0
3078,5445,-53.10,0
3079,5423,-49.38,0
3080,5374,-44.59,0
3081,5337,-39.73,0
3082,5318,-35.89,0
3083,5327,-33.67,0
3084,5365,-32.96,0
3085,5423,-33.08,0
3086,5457,-33.11,0
3087,5455,-32.12,0
3088,5428,-29.52,0
3089,5379,-25.26,0
3090,5362,-19.73,0
3091,5361,-13.52,0
3092,5389,-7.08,0
3093,5433,-0.71,0
3094,5467,5.35,0
3095,5474,10.82,0
3096,5446,15.33,0
3097,5400,18.56,0
3098,5365,20.27,0
3099,5358,20.53,0
3100,5373,19.73,0
3101,5407,18.56,0
3102,5447,17.59,0
3103,5464,17.07,0
3104,5448,16.90,0
3105,5409,16.85,0
3106,5374,16.67,0
3107,5354,16.29,0
3108,5362,15.94,0
3109,5395,15.99,0
3110,5439,16.73,0
3111,5468,18.19,0
3112,5466,20.20,0
3113,5433,22.45,0
3114,5402,24.67,0
3115,5382,26.74,0
3116,5384,28.90,0
3117,5418,31.65,0
3118,5467,35.48,0
3119,5503,40.64,0
3120,5506,46.96,0
3121,5474,53.88,0
3122,5426,60.46,0
3123,5393,65.67,0
3124,5389,68.76,0
3125,5414,69.71,0
3126,5461,69.17,0
3127,5510,68.25,0
3128,5532,68.07,0
3129,5520,69.44,0
3130,5482,72.65,0
3131,5449,77.45,0
3132,5432,83.29,0
3133,5452,89.62,0
3134,5513,96.11,0
3135,5593,102.89,0
3136,5672,110.77,0
3137,5728,121.21,0
3138,5744,136.22,0
3139,5737,157.69,0
3140,5731,186.66,0
3141,5748,222.68,0
3142,5782,263.68,0
3143,5824,306.35,0
3144,5855,346.82,0
3145,5862,381.37,0
3146,5839,407.23,0
3147,5800,423.14,0
3148,5771,429.49,0
3149,5769,428.20,0
3150,5797,422.18,0
3151,5847,414.62,0
3152,5895,408.32,0
3153,5905,405.08,0
3154,5870,405.41,0
3155,5810,408.32,0
3156,5757,411.70,0
3157,5730,413.04,0
3158,5728,410.47,0
3159,5751,403.24,0
3160,5769,391.70,0
3161,5761,376.71,0
3162,5711,359.00,0
3163,5633,338.70,0
3164,5555,315.32,0
3165,5499,288.18,0
3166,5469,257.07,0
3167,5473,222.62,0
3168,5498,186.17,0
3169,5514,149.44,0
3170,5504,114.19,0
3171,5468,81.88,0
3172,5423,53.53,0
3173,5384,29.74,0
3174,5373,10.80,0
3175,5394,-3.26,0
3176,5436,-12.67,0
3177,5480,-17.95,0
3178,5499,-19.82,0
3179,5487,-19.14,0
3180,5450,-16.72,0
3181,5423,-13.26,0
3182,5416,-9.18,0
3183,5436,-4.49,0
3184,5484,1.12,0
3185,5538,7.99,0
3186,5567,16.30,0
3187,5551,25.87,0
3188,5496,35.98,0
3189,5422,45.26,0
3190,5357,51.80,0
3191,5306,53.45,0
3192,5289,48.21,0
3193,5318,34.65,0
3194,5399,12.59,0
3195,5497,-15.82,0
3196,5632,-45.15,0
3197,5855,-66.53,0
3198,6200,-67.88,0
3199,6692,-34.42,0
3200,7309,50.64,0
3201,8016,204.53,0
3202,8747,442.48,0
3203,9456,774.71,0
3204,10105,1203.75,0
3205,10695,1722.84,0
3206,10992,2315.49,0
3207,11003,2954.90,0
3208,11000,3602.90,0
3209,10940,4212.05,0
3210,10493,4732.54,0
3211,9491,5118.42,0
3212,8075,5327.60,0
3213,6540,5318.55,0
3214,5156,5052.38,0
3215,4167,4504.09,0
3216,3595,3678.76,0
3217,3407,2623.53,0
3218,3502,1427.97,0
3219,3766,211.08,0
3220,4095,-900.57,0
3221,4419,-1796.71,0
3222,4703,-2402.68,0
3223,4951,-2690.01,0
3224,5153,-2677.08,0
3225,5305,-2421.15,0
3226,5417,-2004.45,0
3227,5475,-1517.69,0
3228,5477,-1044.21,0
3229,5428,-647.39,0
3230,5351,-363.72,0
3231,5269,-202.14,0
3232,5231,-148.91,0
3233,5223,-176.09,0
3234,5247,-250.81,0
3235,5280,-343.18,0
3236,5297,-431.12,0
3237,5286,-501.73,0
3238,5252,-549.90,0
3239,5216,-575.71,0
3240,5190,-581.97,0
3241,5200,-572.72,0
3242,5226,-552.74,0
3243,5267,-527.50,0
3244,5297,-502.77,0
3245,5305,-483.69,0
3246,5276,-473.33,0
3247,5250,-471.75,0
3248,5232,-476.02,0
3249,5236,-481.27,0
3250,5271,-482.62,0
3251,5321,-477.10,0
3252,5360,-464.64,0
3253,5376,-447.75,0
3254,5361,-430.15,0
3255,5335,-414.91,0
3256,5309,-403.17,0
3257,5309,-393.83,0
3258,5343,-384.52,0
3259,5392,-372.98,0
3260,5433,-358.32,0
3261,5452,-341.53,0
3262,5445,-324.97,0
3263,5418,-311.04,0
3264,5387,-300.90,0
3265,5377,-293.82,0
3266,5399,-287.63,0
3267,5447,-279.92,0
3268,5504,-269.20,0
3269,5541,-255.54,0
3270,5547,-240.34,0
3271,5526,-225.51,0
3272,5492,-212.37,0
3273,5476,-201.04,0
3274,5482,-190.45,0
3275,5520,-179.09,0
3276,5573,-166.00,0
3277,5615,-151.37,0
3278,5633,-136.51,0
3279,5615,-123.12,0
3280,5583,-112.40,0
3281,5560,-104.36,0
3282,5562,-97.78,0
3283,5591,-90.73,0
3284,5646,-81.54,0
3285,5701,-69.63,0
3286,5725,-55.70,0
3287,5720,-41.27,0
3288,5686,-27.96,0
3289,5651,-16.70,0
3290,5640,-7.39,0
3291,5664,0.91,0
3292,5716,9.48,0
3293,5782,19.23,0
3294,5829,30.41,0
3295,5841,42.63,0
3296,5821,55.29,0
3297,5796,68.00,0
3298,5790,80.92,0
3299,5813,94.79,0
3300,5865,110.62,0
3301,5933,129.04,0
3302,5982,149.86,0
3303,5999,171.92,0
3304,5984,193.51,0
3305,5952,213.01,0
3306,5924,229.49,0
3307,5926,243.07,0
3308,5952,254.59,0
3309,6008,265.06,0
3310,6063,275.06,0
3311,6099,284.57,0
3312,6098,293.29,0
3313,6072,301.07,0
3314,6046,308.21,0
3315,6037,315.52,0
3316,6060,324.04,0
3317,6115,334.51,0
3318,6176,347.01,0
3319,6218,360.89,0
3320,6231,375.00,0
3321,6214,388.24,0
3322,6186,400.02,0
3323,6172,410.55,0
3324,6183,420.65,0
3325,6215,431.27,0
3326,6260,442.78,0
3327,6294,454.59,0
3328,6305,465.27,0
3329,6289,473.18,0
3330,6263,477.34,0
3331,6239,477.98,0
3332,6239,476.61,0
3333,6264,475.27,0
3334,6304,475.69,0
3335,6338,478.47,0
3336,6355,482.83,0
3337,6336,487.10,0
3338,6295,489.48,0
3339,6251,488.86,0
3340,6234,485.10,0
3341,6244,478.99,0
3342,6278,471.78,0
3343,6331,464.61,0
3344,6352,458.12,0
3345,6347,452.39,0
3346,6324,447.15,0
3347,6298,442.19,0
3348,6284,437.80,0
3349,6297,434.86,0
3350,6329,434.42,0
3351,6364,437.04,0
3352,6380,442.16,0
3353,6365,448.01,0
3354,6319,452.04,0
3355,6256,451.71,0
3356,6198,445.36,0
3357,6167,432.52,0
3358,6158,413.90,0
3359,6169,390.76,0
3360,6167,364.35,0
3361,6130,335.39,0
3362,6059,303.86,0
3363,5970,269.18,0
3364,5883,230.68,0
3365,5816,188.14,0
3366,5779,142.03,0
3367,5775,93.36,0
3368,5783,43.32,0
3369,5769,-6.90,0
3370,5727,-56.27,0
3371,5655,-103.92,0
3372,5579,-149.23,0
3373,5521,-191.70,0
3374,5496,-230.98,0
3375,5503,-266.84,0
3376,5517,-299.26,0
3377,5523,-328.56,0
3378,5501,-355.44,0
3379,5451,-380.77,0
3380,5395,-405.25,0
3381,5349,-429.12,0
3382,5328,-451.95,0
3383,5339,-472.85,0
3384,5371,-490.94,0
3385,5400,-505.75,0
3386,5406,-517.36,0
3387,5380,-526.34,0
3388,5342,-533.41,0
3389,5309,-539.11,0
3390,5302,-543.46,0
3391,5323,-545.91,0
3392,5364,-545.69,0
3393,5410,-542.24,0
3394,5431,-535.65,0
3395,5419,-526.74,0
3396,5386,-516.80,0
3397,5356,-507.15,0
3398,5340,-498.60,0
3399,5349,-491.14,0
3400,5383,-484.16,0
3401,5424,-476.92,0
3402,5448,-469.08,0
3403,5444,-460.94,0
3404,5408,-453.32,0
3405,5373,-447.15,0
3406,5360,-442.94,0
3407,5374,-440.36,0
3408,5419,-438.06,0
3409,5473,-434.17,0
3410,5516,-427.08,0
3411,5520,-416.10,0
3412,5497,-401.85,0
3413,5463,-385.98,0
3414,5440,-370.47,0
3415,5438,-356.77,0
3416,5464,-345.25,0
3417,5519,-335.39,0
3418,5562,-326.19,0
3419,5588,-316.77,0
3420,5577,-306.71,0
3421,5536,-296.19,0
3422,5495,-285.84,0
3423,5471,-276.43,0
3424,5471,-268.58,0
3425,5499,-262.61,0
3426,5541,-258.59,0
3427,5576,-256.45,0
3428,5577,-255.90,0
3429,5540,-256.41,0
3430,5490,-257.41,0
3431,5446,-258.47,0
3432,5429,-259.52,0
3433,5452,-260.75,0
3434,5497,-262.45,0
3435,5537,-264.78,0
3436,5565,-267.53,0
3437,5553,-270.06,0
3438,5518,-271.43,0
3439,5483,-270.68,0
3440,5469,-267.23,0
3441,5487,-261.04,0
3442,5519,-252.67,0
3443,5549,-243.18,0
3444,5553,-234.02,0
3445,5526,-226.84,0
3446,5480,-223.12,0
3447,5443,-223.77,0
3448,5431,-228.66,0
3449,5429,-236.49,0
3450,5457,-245.20,0
3451,5489,-252.85,0
3452,5500,-258.37,0
3453,5479,-261.79,0
3454,5434,-264.13,0
3455,5385,-266.87,0
3456,5348,-271.25,0
3457,5345,-277.78,0
3458,5377,-286.01,0
3459,5431,-294.73,0
3460,5472,-302.32,0
3461,5485,-307.28,0
3462,5460,-308.61,0
3463,5414,-306.22,0
3464,5377,-300.81,0
3465,5351,-293.67,0
3466,5356,-286.25,0
3467,5381,-279.98,0
3468,5412,-276.07,0
3469,5421,-275.37,0
3470,5395,-278.18,0
3471,5349,-284.27,0
3472,5304,-292.95,0
3473,5283,-303.15,0
3474,5294,-313.52,0
3475,5332,-322.59,0
3476,5377,-329.06,0
3477,5396,-332.16,0
3478,5388,-331.85,0
3479,5356,-328.92,0
3480,5316,-324.59,0
3481,5284,-320.03,0
3482,5276,-316.02,0
3483,5294,-312.88,0
3484,5328,-310.71,0
3485,5352,-309.60,0
3486,5354,-309.71,0
3487,5329,-311.18,0
3488,5296,-313.94,0
3489,5271,-317.54,0
3490,5269,-321.00,0
3491,5289,-323.01,0
3492,5329,-322.42,0
3493,5367,-318.68,0
3494,5381,-312.07,0
3495,5366,-303.60,0
3496,5335,-294.64,0
3497,5307,-286.37,0
3498,5297,-279.40,0
3499,5313,-273.52,0
3500,5347,-267.98,0
3501,5393,-261.98,0
3502,5413,-255.08,0
3503,5397,-247.40,0
3504,5348,-239.68,0
3505,5307,-233.10,0
3506,5276,-228.82,0
3507,5281,-227.45,0
3508,5317,-228.67,0
3509,5367,-231.38,0
3510,5406,-234.02,0
3511,5414,-235.12,0
3512,5394,-233.71,0
3513,5357,-229.56,0
3514,5320,-223.08,0
3515,5305,-215.06,0
3516,5319,-206.54,0
3517,5356,-198.58,0
3518,5388,-192.06,0
3519,5393,-187.63,0
3520,5370,-185.62,0
3521,5328,-186.11,0
3522,5296,-188.86,0
3523,5290,-193.20,0
3524,5313,-197.88,0
3525,5352,-201.30,0
3526,5392,-202.01,0
3527,5420,-199.25,0
3528,5419,-193.20,0
3529,5392,-184.76,0
3530,5359,-175.11,0
3531,5341,-165.27,0
3532,5343,-155.89,0
3533,5373,-147.17,0
3534,5405,-139.13,0
3535,5428,-131.91,0
3536,5422,-125.87,0
3537,5390,-121.63,0
3538,5348,-119.74,0
3539,5324,-120.42,0
3540,5320,-123.22,0
3541,5346,-127.06,0
3542,5386,-130.49,0
3543,5420,-132.30,0
3544,5433,-131.83,0
3545,5414,-129.18,0
3546,5381,-125.01,0
3547,5355,-120.19,0
3548,5349,-115.32,0
3549,5373,-110.49,0
3550,5419,-105.29,0
3551,5468,-99.10,0
3552,5493,-91.43,0
3553,5478,-82.21,0
3554,5440,-71.97,0
3555,5403,-61.80,0
3556,5378,-52.89,0
3557,5383,-46.09,0
3558,5413,-41.64,0
3559,5450,-39.22,0
3560,5473,-38.27,0
3561,5462,-38.28,0
3562,5418,-39.08,0
3563,5369,-40.90,0
3564,5345,-44.15,0
3565,5350,-48.95,0
3566,5394,-54.66,0
3567,5455,-59.86,0
3568,5500,-62.68,0
3569,5512,-61.51,0
3570,5489,-55.69,0
3571,5446,-45.85,0
3572,5410,-33.68,0
3573,5395,-21.27,0
3574,5405,-10.48,0
3575,5430,-2.49,0
3576,5488,2.20,0
3577,5516,3.78,0
3578,5512,3.17,0
3579,5479,1.74,0
3580,5438,0.82,0
3581,5413,1.27,0
3582,5415,3.36,0
3583,5444,6.82,0
3584,5487,11.01,0
3585,5522,15.20,0
3586,5529,18.84,0
3587,5511,21.73,0
3588,5469,24.06,0
3589,5438,26.24,0
3590,5434,28.69,0
3591,5455,31.61,0
3592,5491,34.98,0
3593,5525,38.52,0
3594,5535,41.74,0
3595,5526,44.18,0
3596,5478,45.56,0
3597,5451,45.95,0
3598,5448,45.71,0
3599,5475,45.51,0
3600,5524,46.27,0
3601,5558,48.89,0
3602,5565,53.76,0
3603,5545,60.41,0
3604,5504,67.47,0
3605,5463,73.26,0
3606,5444,76.43,0
3607,5471,76.58,0
3608,5535,74.48,0
3609,5612,72.04,0
3610,5681,71.88,0
3611,5726,76.69,0
3612,5747,88.62,0
3613,5753,108.87,0
3614,5760,137.62,0
3615,5762,173.92,0
3616,5786,215.59,0
3617,5820,259.17,0
3618,5845,300.42,0
3619,5857,335.17,0
3620,5845,360.33,0
3621,5821,374.74,0
3622,5793,379.34,0
3623,5777,376.79,0
3624,5780,370.44,0
3625,5812,363.23,0
3626,5859,357.02,0
3627,5894,352.61,0
3628,5886,350.18,0
3629,5844,349.63,0
3630,5791,350.49,0
3631,5764,351.86,0
3632,5770,352.58,0
3633,5803,351.76,0
3634,5832,349.08,0
3635,5840,344.70,0
3636,5805,338.77,0
3637,5720,330.90,0
3638,5627,319.88,0
3639,5561,303.89,0
3640,5530,281.28,0
3641,5513,251.49,0
3642,5529,215.39,0
3643,5534,174.97,0
3644,5521,132.70,0
3645,5486,91.05,0
3646,5437,52.12,0
3647,5401,17.52,0
3648,5385,-11.54,0
3649,5404,-34.29,0
3650,5448,-50.40,0
3651,5486,-60.03,0
3652,5505,-63.90,0
3653,5498,-63.22,0
3654,5466,-59.49,0
3655,5434,-54.19,0
3656,5403,-48.48,0
3657,5411,-43.11,0
3658,5452,-38.50,0
3659,5501,-34.76,0
3660,5536,-31.62,0
3661,5529,-28.61,0
3662,5489,-25.38,0
3663,5433,-22.01,0
3664,5369,-19.20,0
3665,5321,-18.19,0
3666,5311,-20.63,0
3667,5310,-28.27,0
3668,5335,-42.41,0
3669,5393,-63.16,0
3670,5477,-88.48,0
3671,5612,-113.23,0
3672,5866,-128.74,0
3673,6249,-122.90,0
3674,6784,-80.58,0
3675,7446,15.38,0
3676,8156,182.43,0
3677,8873,435.69,0
3678,9565,784.82,0
3679,10225,1231.36,0
3680,10867,1767.68,0
3681,11012,2376.85,0
3682,11020,3030.75,0
3683,11010,3687.96,0
3684,10976,4297.02,0
3685,10600,4806.25,0
3686,9507,5171.72,0
3687,7965,5356.05,0
3688,6371,5321.64,0
3689,5006,5030.60,0
3690,4072,4457.09,0
3691,3570,3606.10,0
3692,3413,2526.77,0
3693,3504,1312.12,0
3694,3735,84.24,0
3695,4029,-1029.14,0
3696,4342,-1918.99,0
3697,4643,-2513.46,0
3698,4916,-2787.17,0
3699,5139,-2760.95,0
3700,5314,-2493.62,0
3701,5422,-2068.27,0
3702,5452,-1575.99,0
3703,5423,-1100.08,0
3704,5364,-703.61,0
3705,5298,-422.32,0
3706,5252,-263.86,0
3707,5234,-212.81,0
3708,5244,-239.80,0
3709,5269,-311.45,0
3710,5284,-398.53,0
3711,5273,-480.39,0
3712,5245,-545.65,0
3713,5213,-590.17,0
3714,5185,-614.16,0
3715,5198,-619.78,0
3716,5230,-610.09,0
3717,5271,-589.04,0
3718,5306,-561.67,0
3719,5309,-533.85,0
3720,5278,-511.17,0
3721,5247,-497.39,0
3722,5228,-493.15,0
3723,5232,-495.69,0
3724,5253,-499.94,0
3725,5298,-500.76,0
3726,5350,-495.20,0
3727,5385,-483.34,0
3728,5390,-467.62,0
3729,5369,-451.11,0
3730,5351,-435.80,0
3731,5346,-421.71,0
3732,5363,-407.17,0
3733,5410,-390.07,0
3734,5455,-369.41,0
3735,5478,-346.14,0
3736,5474,-323.04,0
3737,5441,-303.56,0
3738,5395,-290.30,0
3739,5364,-283.83,0
3740,5370,-282.56,0
3741,5413,-283.53,0
3742,5475,-283.62,0
3743,5528,-280.70,0
3744,5541,-274.20,0
3745,5521,-264.91,0
3746,5480,-254.34,0
3747,5450,-243.75,0
3748,5456,-233.50,0
3749,5499,-222.94,0
3750,5560,-210.87,0
3751,5606,-196.43,0
3752,5616,-179.90,0
3753,5593,-162.94,0
3754,5552,-147.97,0
3755,5521,-137.05,0
3756,5511,-130.67,0
3757,5538,-127.49,0
3758,5592,-124.99,0
3759,5649,-120.72,0
3760,5684,-113.36,0
3761,5685,-103.14,0
3762,5652,-91.44,0
3763,5617,-79.91,0
3764,5604,-69.56,0
3765,5631,-60.20,0
3766,5675,-50.60,0
3767,5727,-39.27,0
3768,5770,-25.57,0
3769,5789,-10.18,0
3770,5783,5.28,0
3771,5758,19.32,0
3772,5734,31.46,0
3773,5718,42.43,0
3774,5741,53.49,0
3775,5795,65.46,0
3776,5855,78.22,0
3777,5886,90.91,0
3778,5880,102.44,0
3779,5860,112.08,0
3780,5847,119.89,0
3781,5856,127.06,0
3782,5890,135.66,0
3783,5945,147.81,0
3784,5995,164.66,0
3785,6015,185.61,0
3786,6012,208.31,0
3787,5996,229.51,0
3788,5983,246.54,0
3789,5987,258.60,0
3790,6012,267.11,0
3791,6051,274.92,0
3792,6096,284.72,0
3793,6124,297.63,0
3794,6124,312.71,0
3795,6107,327.54,0
3796,6081,339.58,0
3797,6066,347.40,0
3798,6053,351.40,0
3799,6111,353.30,0
3800,6167,355.30,0
3801,6215,359.22,0
3802,6227,365.90,0
3803,6206,374.87,0
3804,6169,384.59,0
3805,6143,393.27,0
3806,6137,399.80,0
3807,6159,404.21,0
3808,6194,407.36,0
3809,6233,410.18,0
3810,6258,412.95,0
3811,6253,415.16,0
3812,6226,416.03,0
3813,6192,415.08,0
3814,6172,412.63,0
3815,6185,409.68,0
3816,6221,407.56,0
3817,6259,407.27,0
3818,6276,408.93,0
3819,6272,411.56,0
3820,6243,413.42,0
3821,6209,412.84,0
3822,6204,409.14,0
3823,6217,403.14,0
3824,6241,396.96,0
3825,6261,392.91,0
3826,6264,392.08,0
3827,6245,393.50,0
3828,6198,394.38,0
3829,6133,391.31,0
3830,6068,381.60,0
3831,6023,364.18,0
3832,6009,339.61,0
3833,6015,309.60,0
3834,6033,276.24,0
3835,6031,241.42,0
3836,5991,206.56,0
3837,5921,172.58,0
3838,5839,139.82,0
3839,5771,108.13,0
3840,5727,76.94,0
3841,5719,45.43,0
3842,5723,12.66,0
3843,5710,-22.14,0
3844,5671,-59.39,0
3845,5604,-99.14,0
3846,5528,-140.93,0
3847,5473,-183.83,0
3848,5454,-226.37,0
3849,5473,-266.67,0
3850,5502,-302.74,0
3851,5503,-333.05,0
3852,5469,-357.17,0
3853,5404,-376.32,0
3854,5340,-393.03,0
3855,5301,-410.10,0
3856,5278,-429.28,0
3857,5290,-450.53,0
3858,5322,-472.29,0
3859,5354,-492.49,0
3860,5361,-509.37,0
3861,5333,-522.13,0
3862,5284,-531.04,0
3863,5239,-537.08,0
3864,5215,-541.43,0
3865,5229,-544.86,0
3866,5282,-547.50,0
3867,5358,-548.77,0
3868,5392,-547.57,0
3869,5393,-542.78,0
3870,5366,-533.87,0
3871,5332,-521.30,0
3872,5317,-506.18,0
3873,5328,-489.72,0
3874,5376,-472.76,0
3875,5430,-455.67,0
3876,5472,-438.57,0
3877,5482,-421.60,0
3878,5456,-405.18,0
3879,5421,-390.00,0
3880,5396,-376.68,0
3881,5399,-365.40,0
3882,5427,-355.67,0
3883,5484,-346.54,0
3884,5513,-337.06,0
3885,5513,-326.81,0
3886,5488,-316.31,0
3887,5436,-306.94,0
3888,5398,-300.24,0
3889,5389,-297.18,0
3890,5403,-297.56,0
3891,5439,-300.08,0
3892,5478,-303.00,0
3893,5500,-304.91,0
3894,5501,-305.17,0
3895,5482,-303.80,0
3896,5455,-300.99,0
3897,5435,-296.73,0
3898,5425,-290.77,0
3899,5445,-283.00,0
3900,5486,-273.92,0
3901,5525,-264.65,0
3902,5538,-256.39,0
3903,5513,-249.94,0
3904,5470,-245.47,0
3905,5433,-242.67,0
3906,5423,-240.95,0
3907,5451,-239.67,0
3908,5507,-238.14,0
3909,5560,-235.69,0
3910,5583,-231.65,0
3911,5560,-225.64,0
3912,5497,-217.85,0
3913,5424,-209.34,0
3914,5379,-202.01,0
3915,5379,-198.04,0
3916,5417,-199.10,0
3917,5463,-205.59,0
3918,5487,-216.45,0
3919,5479,-229.62,0
3920,5447,-242.79,0
3921,5404,-254.01,0
3922,5383,-261.94,0
3923,5391,-265.84,0
3924,5413,-265.54,0
3925,5440,-261.45,0
3926,5453,-254.86,0
3927,5444,-247.81,0
3928,5402,-242.68,0
3929,5359,-241.40,0
3930,5338,-244.80,0
3931,5342,-252.15,0
3932,5379,-261.28,0
3933,5423,-269.28,0
3934,5460,-273.62,0
3935,5466,-272.98,0
3936,5437,-267.69,0
3937,5392,-259.46,0
3938,5348,-250.62,0
3939,5322,-243.29,0
3940,5318,-238.81,0
3941,5348,-237.68,0
3942,5386,-239.80,0
3943,5404,-244.62,0
3944,5393,-251.29,0
3945,5357,-258.85,0
3946,5325,-266.29,0
3947,5301,-272.62,0
3948,5300,-276.86,0
3949,5322,-278.34,0
3950,5350,-277.02,0
3951,5361,-273.71,0
3952,5353,-269.97,0
3953,5328,-267.60,0
3954,5301,-267.90,0
3955,5269,-271.01,0
3956,5257,-275.87,0
3957,5279,-280.81,0
3958,5313,-284.32,0
3959,5353,-285.58,0
3960,5364,-284.53,0
3961,5350,-281.66,0
3962,5319,-277.70,0
3963,5284,-273.28,0
3964,5267,-268.70,0
3965,5275,-263.99,0
3966,5302,-259.13,0
3967,5338,-254.31,0
3968,5356,-249.96,0
3969,5346,-246.62,0
3970,5317,-244.69,0
3971,5290,-244.18,0
3972,5268,-244.58,0
3973,5270,-244.89,0
3974,5300,-244.10,0
3975,5343,-241.53,0
3976,5363,-237.11,0
3977,5352,-231.41,0
3978,5322,-225.49,0
3979,5285,-220.61,0
3980,5257,-217.71,0
3981,5260,-216.90,0
3982,5287,-217.48,0
3983,5321,-218.22,0
3984,5346,-217.99,0
3985,5344,-216.31,0
3986,5315,-213.58,0
3987,5276,-210.85,0
3988,5245,-209.24,0
3989,5236,-209.32,0
3990,5258,-210.80,0
3991,5310,-212.65,0
3992,5363,-213.45,0
3993,5395,-211.82,0
3994,5370,-206.86,0
3995,5308,-198.63,0
3996,5244,-188.52,0
3997,5209,-178.99,0
3998,5228,-172.60,0
3999,5286,-170.83,0
4000,5335,-173.25,0
4001,5350,-177.85,0
4002,5336,-182.23,0
4003,5299,-184.88,0
4004,5265,-185.50,0
4005,5247,-184.59,0
4006,5252,-182.66,0
4007,5282,-179.76,0
4008,5320,-175.69,0
4009,5336,-170.36,0
4010,5324,-164.27,0
4011,5290,-158.63,0
4012,5247,-155.00,0
4013,5213,-154.59,0
4014,5208,-157.62,0
4015,5237,-163.17,0
4016,5285,-169.44,0
4017,5336,-174.35,0
4018,5359,-176.14,0
4019,5350,-173.83,0
4020,5317,-167.42,0
4021,5289,-157.75,0
4022,5279,-146.05,0
4023,5291,-133.46,0
4024,5321,-120.87,0
4025,5369,-108.91,0
4026,5397,-98.13,0
4027,5390,-88.94,0
4028,5358,-81.57,0
4029,5317,-76.11,0
4030,5298,-72.45,0
4031,5313,-70.14,0
4032,5349,-68.29,0
4033,5392,-65.80,0
4034,5415,-61.74,0
4035,5408,-55.97,0
4036,5370,-49.24,0
4037,5313,-43.05,0
4038,5276,-39.07,0
4039,5274,-38.49,0
4040,5321,-41.40,0
4041,5378,-46.52,0
4042,5431,-51.54,0
4043,5452,-53.95,0
4044,5442,-51.96,0
4045,5404,-45.11,0
4046,5371,-34.18,0
4047,5366,-20.77,0
4048,5396,-6.55,0
4049,5442,7.33,0
4050,5504,20.42,0
4051,5549,32.84,0
4052,5590,45.16,0
4053,5615,58.38,0
4054,5611,74.07,0
4055,5615,94.01,0
4056,5636,119.49,0
4057,5681,150.52,0
4058,5726,185.68,0
4059,5756,222.30,0
4060,5765,257.07,0
4061,5765,286.91,0
4062,5747,309.83,0
4063,5735,325.65,0
4064,5755,335.91,0
4065,5814,343.28,0
4066,5883,350.84,0
4067,5939,361.32,0
4068,5949,376.38,0
4069,5913,395.93,0
4070,5855,417.93,0
4071,5799,438.89,0
4072,5767,454.97,0
4073,5752,463.17,0
4074,5757,461.97,0
4075,5757,451.29,0
4076,5735,432.02,0
4077,5679,405.41,0
4078,5594,372.70,0
4079,5509,334.95,0
4080,5452,293.12,0
4081,5433,248.39,0
4082,5435,202.39,0
4083,5444,157.11,0
4084,5443,114.36,0
4085,5416,75.29,0
4086,5361,40.19,0
4087,5301,8.69,0
4088,5263,-19.86,0
4089,5256,-45.89,0
4090,5284,-69.26,0
4091,5327,-89.23,0
4092,5367,-104.87,0
4093,5376,-115.45,0
4094,5357,-120.87,0
4095,5326,-121.70,0
4096,5309,-118.98,0
4097,5302,-113.68,0
4098,5317,-106.46,0
4099,5358,-97.75,0
4100,5410,-88.04,0
4101,5445,-77.87,0
4102,5451,-67.63,0
4103,5429,-57.40,0
4104,5392,-47.02,0
4105,5363,-36.33,0
4106,5347,-25.53,0
4107,5357,-15.37,0
4108,5378,-7.19,0
4109,5355,-2.68,0
4110,5305,-3.62,0
4111,5244,-11.68,0
4112,5217,-27.96,0
4113,5260,-51.86,0
4114,5380,-79.84,0
4115,5613,-104.73,0
4116,5962,-115.92,0
4117,6400,-100.03,0
4118,6938,-41.95,0
4119,7552,74.10,0
4120,8176,263.23,0
4121,8810,537.84,0
4122,9463,904.86,0
4123,10136,1363.23,0
4124,10826,1903.21,0
4125,11009,2506.53,0
4126,11018,3145.08,0
4127,11009,3778.94,0
4128,10959,4359.98,0
4129,10457,4841.45,0
4130,9253,5184.23,0
4131,7635,5352.72,0
4132,6039,5306.70,0
4133,4741,5002.44,0
4134,3883,4408.48,0
4135,3414,3527.79,0
4136,3243,2412.55,0
4137,3300,1162.61,0
4138,3515,-91.95,0
4139,3824,-1217.17,0
4140,4176,-2101.43,0
4141,4532,-2674.62,0
4142,4831,-2916.84,0
4143,5047,-2856.43,0
4144,5173,-2559.58,0
4145,5222,-2114.64,0
4146,5230,-1614.55,0
4147,5221,-1140.89,0
4148,5227,-752.22,0
4149,5236,-478.65,0
4150,5252,-323.04,0
4151,5254,-267.52,0
4152,5230,-282.93,0
4153,5194,-338.20,0
4154,5169,-407.23,0
4155,5169,-472.05,0
4156,5177,-522.48,0
4157,5205,-554.10,0
4158,5247,-566.20,0
4159,5279,-560.38,0
4160,5274,-539.96,0
4161,5235,-509.98,0
4162,5189,-477.06,0
4163,5173,-448.41,0
4164,5187,-429.84,0
4165,5218,-423.56,0
4166,5269,-427.39,0
4167,5315,-435.64,0
4168,5335,-441.57,0
4169,5328,-439.93,0
4170,5314,-428.88,0
4171,5303,-410.18,0
4172,5305,-387.76,0
4173,5328,-365.62,0
4174,5372,-346.11,0
4175,5416,-329.28,0
4176,5430,-313.50,0
4177,5420,-296.96,0
4178,5393,-279.15,0
4179,5357,-261.47,0
4180,5337,-246.60,0
4181,5350,-237.06,0
4182,5382,-233.73,0
4183,5429,-235.16,0
4184,5465,-238.01,0
4185,5477,-238.47,0
4186,5466,-233.87,0
4187,5454,-223.69,0
4188,5451,-209.45,0
4189,5470,-193.52,0
4190,5503,-177.73,0
4191,5535,-162.56,0
4192,5556,-147.33,0
4193,5552,-131.21,0
4194,5520,-114.33,0
4195,5490,-98.31,0
4196,5469,-85.79,0
4197,5463,-79.16,0
4198,5493,-79.26,0
4199,5557,-84.65,0
4200,5622,-91.68,0
4201,5664,-95.56,0
4202,5653,-92.01,0
4203,5631,-79.17,0
4204,5592,-58.39,0
4205,5567,-33.73,0
4206,5573,-10.23,0
4207,5620,8.07,0
4208,5677,19.62,0
4209,5721,25.68,0
4210,5735,29.40,0
4211,5715,34.08,0
4212,5680,41.62,0
4213,5661,51.88,0
4214,5668,63.22,0
4215,5710,73.83,0
4216,5773,82.96,0
4217,5824,91.37,0
4218,5846,100.90,0
4219,5832,113.23,0
4220,5801,128.73,0
4221,5766,146.06,0
4222,5761,162.75,0
4223,5788,176.32,0
4224,5846,185.59,0
4225,5903,191.24,0
4226,5937,195.52,0
4227,5944,201.11,0
4228,5931,209.91,0
4229,5913,222.28,0
4230,5905,237.27,0
4231,5934,253.30,0
4232,5995,269.09,0
4233,6050,284.39,0
4234,6085,299.90,0
4235,6087,316.54,0
4236,6063,334.47,0
4237,6036,352.62,0
4238,6025,369.07,0
4239,6045,382.09,0
4240,6085,391.05,0
4241,6135,396.84,0
4242,6184,401.42,0
4243,6210,407.02,0
4244,6210,415.23,0
4245,6194,426.57,0
4246,6171,440.41,0
4247,6175,455.38,0
4248,6206,469.98,0
4249,6254,483.23,0
4250,6294,494.97,0
4251,6307,505.62,0
4252,6284,515.49,0
4253,6238,524.17,0
4254,6185,530.33,0
4255,6151,532.20,0
4256,6155,528.26,0
4257,6188,518.16,0
4258,6237,503.10,0
4259,6268,485.67,0
4260,6264,469.00,0
4261,6227,455.64,0
4262,6175,446.57,0
4263,6144,441.06,0
4264,6142,437.23,0
4265,6169,433.18,0
4266,6206,427.86,0
4267,6235,421.31,0
4268,6235,414.25,0
4269,6203,407.39,0
4270,6148,400.90,0
4271,6105,394.14,0
4272,6076,386.02,0
4273,6075,375.53,0
4274,6085,362.20,0
4275,6087,346.10,0
4276,6074,327.55,0
4277,6031,306.77,0
4278,5966,283.71,0
4279,5899,258.07,0
4280,5841,229.53,0
4281,5807,198.01,0
4282,5795,163.71,0
4283,5796,127.16,0
4284,5780,89.10,0
4285,5732,50.26,0
4286,5660,11.15,0
4287,5597,-28.19,0
4288,5552,-67.89,0
4289,5525,-107.72,0
4290,5519,-146.88,0
4291,5529,-184.13,0
4292,5532,-218.36,0
4293,5513,-248.93,0
4294,5462,-275.88,0
4295,5404,-299.94,0
4296,5352,-322.26,0
4297,5335,-343.95,0
4298,5347,-365.54,0
4299,5377,-386.62,0
4300,5400,-406.05,0
4301,5392,-422.54,0
4302,5352,-435.40,0
4303,5291,-445.08,0
4304,5233,-453.12,0
4305,5200,-461.57,0
4306,5207,-472.09,0
4307,5241,-485.21,0
4308,5291,-500.04,0
4309,5329,-514.49,0
4310,5341,-525.99,0
4311,5320,-532.22,0
4312,5280,-531.93,0
4313,5255,-525.24,0
4314,5253,-513.64,0
4315,5290,-499.32,0
4316,5343,-484.38,0
4317,5388,-470.20,0
4318,5398,-457.17,0
4319,5368,-445.10,0
4320,5324,-433.83,0
4321,5291,-423.59,0
4322,5281,-414.94,0
4323,5303,-408.32,0
4324,5345,-403.71,0
4325,5384,-400.52,0
4326,5405,-397.84,0
4327,5396,-394.77,0
4328,5376,-390.67,0
4329,5354,-385.18,0
4330,5359,-378.10,0
4331,5389,-369.14,0
4332,5439,-357.85,0
4333,5479,-343.83,0
4334,5498,-327.11,0
4335,5483,-308.54,0
4336,5447,-289.85,0
4337,5411,-273.16,0
4338,5391,-260.33,0
4339,5402,-252.22,0
4340,5447,-248.38,0
4341,5503,-247.20,0
4342,5533,-246.41,0
4343,5530,-243.92,0
4344,5493,-238.68,0
4345,5449,-231.07,0
4346,5412,-222.59,0
4347,5404,-215.07,0
4348,5426,-209.94,0
4349,5465,-207.69,0
4350,5509,-207.90,0
4351,5528,-209.47,0
4352,5511,-211.05,0
4353,5477,-211.50,0
4354,5448,-210.24,0
4355,5433,-207.19,0
4356,5449,-202.60,0
4357,5494,-196.86,0
4358,5538,-190.27,0
4359,5560,-183.06,0
4360,5550,-175.42,0
4361,5513,-167.79,0
4362,5474,-160.78,0
4363,5451,-155.09,0
4364,5457,-151.13,0
4365,5490,-148.83,0
4366,5532,-147.65,0
4367,5549,-146.85,0
4368,5532,-145.89,0
4369,5485,-144.91,0
4370,5435,-144.72,0
4371,5407,-146.46,0
4372,5406,-150.83,0
4373,5435,-157.58,0
4374,5474,-165.43,0
4375,5502,-172.72,0
4376,5500,-178.04,0
4377,5474,-180.89,0
4378,5431,-181.71,0
4379,5388,-181.57,0
4380,5365,-181.60,0
4381,5378,-182.66,0
4382,5429,-185.04,0
4383,5473,-188.35,0
4384,5483,-191.63,0
4385,5449,-193.90,0
4386,5396,-194.91,0
4387,5344,-195.38,0
4388,5317,-196.62,0
4389,5326,-199.76,0
4390,5358,-205.08,0
4391,5397,-211.92,0
4392,5420,-219.08,0
4393,5413,-225.35,0
4394,5377,-230.00,0
4395,5337,-232.94,0
4396,5307,-234.50,0
4397,5303,-235.13,0
4398,5333,-235.11,0
4399,5378,-234.49,0
4400,5411,-233.11,0
4401,5415,-230.84,0
4402,5389,-227.76,0
4403,5349,-224.25,0
4404,5319,-220.90,0
4405,5301,-218.13,0
4406,5308,-216.06,0
4407,5331,-214.68,0
4408,5358,-214.05,0
4409,5367,-214.49,0
4410,5350,-216.37,0
4411,5315,-219.93,0
4412,5283,-224.99,0
4413,5280,-230.82,0
4414,5316,-236.12,0
4415,5373,-239.05,0
4416,5415,-237.72,0
4417,5443,-230.88,0
4418,5416,-218.64,0
4419,5380,-202.75,0
4420,5325,-186.13,0
4421,5297,-171.93,0
4422,5295,-162.49,0
4423,5317,-158.72,0
4424,5358,-160.06,0
4425,5393,-164.96,0
4426,5391,-171.48,0
4427,5371,-177.83,0
4428,5330,-182.78,0
4429,5298,-185.75,0
4430,5289,-186.62,0
4431,5314,-185.57,0
4432,5362,-182.85,0
4433,5411,-178.67,0
4434,5430,-173.15,0
4435,5411,-166.38,0
4436,5360,-158.75,0
4437,5309,-151.06,0
4438,5279,-144.51,0
4439,5285,-140.25,0
4440,5324,-139.01,0
4441,5365,-140.69,0
4442,5394,-144.47,0
4443,5389,-149.09,0
4444,5354,-153.28,0
4445,5310,-156.16,0
4446,5279,-157.39,0
4447,5274,-157.11,0
4448,5306,-155.71,0
4449,5349,-153.68,0
4450,5374,-151.38,0
4451,5373,-149.14,0
4452,5345,-147.29,0
4453,5314,-146.22,0
4454,5292,-146.03,0
4455,5291,-146.30,0
4456,5324,-146.09,0
4457,5376,-144.26,0
4458,5424,-139.85,0
4459,5438,-132.42,0
4460,5418,-122.26,0
4461,5371,-110.43,0
4462,5326,-98.56,0
4463,5306,-88.38,0
4464,5316,-81.16,0
4465,5343,-77.40,0
4466,5393,-76.82,0
4467,5418,-78.61,0
4468,5408,-81.62,0
4469,5369,-84.77,0
4470,5323,-87.34,0
4471,5291,-89.11,0
4472,5289,-90.18,0
4473,5326,-90.80,0
4474,5370,-91.11,0
4475,5403,-91.04,0
4476,5406,-90.44,0
4477,5378,-89.23,0
4478,5339,-87.54,0
4479,5310,-85.59,0
4480,5303,-83.52,0
4481,5318,-81.26,0
4482,5355,-78.73,0
4483,5387,-76.02,0
4484,5400,-73.44,0
4485,5390,-71.43,0
4486,5370,-70.23,0
4487,5361,-69.54,0
4488,5374,-68.32,0
4489,5428,-64.84,0
4490,5511,-57.04,0
4491,5610,-43.00,0
4492,5685,-21.28,0
4493,5712,8.76,0
4494,5709,46.63,0
4495,5689,90.55,0
4496,5679,137.64,0
4497,5687,184.50,0
4498,5718,227.83,0
4499,5755,264.88,0
4500,5787,293.70,0
4501,5797,313.39,0
4502,5773,324.22,0
4503,5734,327.57,0
4504,5723,325.59,0
4505,5746,320.94,0
4506,5803,316.58,0
4507,5870,315.45,0
4508,5903,319.87,0
4509,5911,330.69,0
4510,5885,346.78,0
4511,5835,365.34,0
4512,5780,382.78,0
4513,5735,395.73,0
4514,5710,401.69,0
4515,5703,399.12,0
4516,5688,387.34,0
4517,5650,366.24,0
4518,5578,336.06,0
4519,5490,297.31,0
4520,5423,250.92,0
4521,5376,198.65,0
4522,5351,143.31,0
4523,5361,88.40,0
4524,5379,37.33,0
4525,5383,-7.43,0
4526,5355,-44.74,0
4527,5329,-74.83,0
4528,5285,-98.82,0
4529,5255,-117.88,0
4530,5256,-132.82,0
4531,5288,-143.89,0
4532,5328,-151.06,0
4533,5361,-154.29,0
4534,5360,-153.90,0
4535,5327,-150.83,0
4536,5288,-146.54,0
4537,5266,-142.59,0
4538,5260,-139.96,0
4539,5278,-138.68,0
4540,5322,-138.01,0
4541,5373,-136.91,0
4542,5402,-134.46,0
4543,5389,-130.07,0
4544,5357,-123.59,0
4545,5320,-115.48,0
4546,5292,-106.54,0
4547,5280,-97.80,0
4548,5284,-90.37,0
4549,5293,-85.55,0
4550,5281,-84.81,0
4551,5249,-89.58,0
4552,5222,-100.81,0
4553,5242,-118.25,0
4554,5317,-139.42,0
4555,5477,-158.85,0
4556,5766,-168.03,0
4557,6178,-155.76,0
4558,6691,-108.68,0
4559,7281,-11.89,0
4560,7890,149.84,0
4561,8513,389.95,0
4562,9152,717.48,0
4563,9808,1134.71,0
4564,10494,1636.04,0
4565,10988,2208.14,0
4566,11011,2829.23,0
4567,11006,3466.55,0
4568,10966,4075.86,0
4569,10512,4607.65,0
4570,9425,5014.73,0
4571,7890,5252.83,0
4572,6301,5276.17,0
4573,4943,5038.75,0
4574,4002,4507.42,0
4575,3459,3681.23,0
4576,3234,2605.93,0
4577,3252,1374.59,0
4578,3451,113.05,0
4579,3753,-1044.20,0
4580,4104,-1979.74,0
4581,4459,-2613.84,0
4582,4778,-2915.78,0
4583,5024,-2904.56,0
4584,5179,-2640.33,0
4585,5247,-2209.33,0
4586,5254,-1706.07,0
4587,5231,-1216.37,0
4588,5199,-804.50,0
4589,5186,-506.53,0
4590,5195,-330.48,0
4591,5207,-261.93,0
4592,5201,-272.96,0
4593,5169,-331.68,0
4594,5124,-409.81,0
4595,5086,-486.90,0
4596,5080,-550.90,0
4597,5105,-596.28,0
4598,5154,-621.42,0
4599,5192,-626.81,0
4600,5216,-614.67,0
4601,5214,-589.21,0
4602,5188,-556.59,0
4603,5154,-523.97,0
4604,5130,-497.69,0
4605,5136,-481.50,0
4606,5176,-475.43,0
4607,5238,-476.07,0
4608,5285,-477.95,0
4609,5305,-475.76,0
4610,5301,-466.47,0
4611,5277,-450.15,0
4612,5260,-429.42,0
4613,5265,-407.75,0
4614,5294,-387.63,0
4615,5330,-369.65,0
4616,5365,-352.79,0
4617,5377,-335.73,0
4618,5362,-318.13,0
4619,5326,-301.23,0
4620,5300,-287.36,0
4621,5297,-278.70,0
4622,5325,-275.76,0
4623,5381,-276.68,0
4624,5438,-277.66,0
4625,5469,-274.51,0
4626,5473,-264.41,0
4627,5448,-247.25,0
4628,5423,-225.56,0
4629,5412,-203.24,0
4630,5421,-183.72,0
4631,5453,-168.53,0
4632,5492,-157.08,0
4633,5524,-147.51,0
4634,5536,-137.93,0
4635,5518,-127.55,0
4636,5489,-116.90,0
4637,5469,-107.42,0
4638,5471,-100.37,0
4639,5500,-95.90,0
4640,5551,-92.77,0
4641,5598,-88.73,0
4642,5628,-81.61,0
4643,5621,-70.29,0
4644,5594,-55.32,0
4645,5569,-38.68,0
4646,5572,-22.85,0
4647,5609,-9.50,0
4648,5660,1.41,0
4649,5719,11.60,0
4650,5758,23.43,0
4651,5763,38.62,0
4652,5735,57.34,0
4653,5705,77.96,0
4654,5690,97.81,0
4655,5707,114.50,0
4656,5749,126.99,0
4657,5802,136.08,0
4658,5844,143.75,0
4659,5853,152.10,0
4660,5842,162.28,0
4661,5817,174.03,0
4662,5798,186.11,0
4663,5805,197.14,0
4664,5842,206.51,0
4665,5901,214.72,0
4666,5959,223.23,0
4667,5992,233.71,0
4668,5991,247.23,0
4669,5966,263.66,0
4670,5948,281.67,0
4671,5951,299.41,0
4672,5986,315.46,0
4673,6039,329.59,0
4674,6101,342.73,0
4675,6136,356.35,0
4676,6144,371.56,0
4677,6122,388.44,0
4678,6098,405.91,0
4679,6088,422.31,0
4680,6111,436.29,0
4681,6144,447.48,0
4682,6201,456.61,0
4683,6242,464.99,0
4684,6265,473.82,0
4685,6255,483.72,0
4686,6221,494.50,0
4687,6193,505.28,0
4688,6196,514.93,0
4689,6226,522.62,0
4690,6271,528.27,0
4691,6308,532.56,0
4692,6327,536.36,0
4693,6301,540.13,0
4694,6262,543.56,0
4695,6226,545.62,0
4696,6213,545.14,0
4697,6227,541.57,0
4698,6266,535.38,0
4699,6315,527.92,0
4700,6337,520.93,0
4701,6326,515.78,0
4702,6299,512.87,0
4703,6269,511.62,0
4704,6254,510.91,0
4705,6260,509.90,0
4706,6296,508.39,0
4707,6339,506.82,0
4708,6366,505.91,0
4709,6358,506.07,0
4710,6311,506.96,0
4711,6247,507.23,0
4712,6192,504.87,0
4713,6158,497.82,0
4714,6157,484.79,0
4715,6170,465.66,0
4716,6172,441.42,0
4717,6144,413.57,0
4718,6083,383.36,0
4719,6003,351.28,0
4720,5928,317.06,0
4721,5871,280.19,0
4722,5840,240.45,0
4723,5831,198.22,0
4724,5821,154.37,0
4725,5797,109.85,0
4726,5733,65.28,0
4727,5652,20.73,0
4728,5575,-24.28,0
4729,5517,-70.25,0
4730,5492,-117.18,0
4731,5503,-164.16,0
4732,5524,-209.47,0
4733,5537,-251.08,0
4734,5507,-287.27,0
4735,5450,-317.33,0
4736,5388,-341.88,0
4737,5343,-362.58,0
4738,5325,-381.27,0
4739,5342,-399.17,0
4740,5368,-416.52,0
4741,5381,-432.81,0
4742,5381,-447.36,0
4743,5348,-459.92,0
4744,5304,-470.76,0
4745,5272,-480.43,0
4746,5260,-489.29,0
4747,5284,-497.17,0
4748,5331,-503.29,0
4749,5383,-506.51,0
4750,5410,-505.75,0
4751,5400,-500.49,0
4752,5361,-491.13,0
4753,5330,-479.01,0
4754,5323,-465.94,0
4755,5340,-453.41,0
4756,5381,-442.03,0
4757,5428,-431.55,0
4758,5460,-421.27,0
4759,5460,-410.65,0
4760,5426,-399.59,0
4761,5386,-388.63,0
4762,5357,-378.67,0
4763,5360,-370.53,0
4764,5389,-364.49,0
4765,5439,-360.12,0
4766,5481,-356.47,0
4767,5490,-352.46,0
4768,5460,-347.32,0
4769,5413,-341.04,0
4770,5381,-334.36,0
4771,5371,-328.32,0
4772,5393,-323.65,0
4773,5439,-320.37,0
4774,5482,-317.84,0
4775,5505,-315.14,0
4776,5491,-311.47,0
4777,5451,-306.58,0
4778,5421,-300.77,0
4779,5403,-294.69,0
4780,5412,-288.86,0
4781,5452,-283.42,0
4782,5497,-278.20,0
4783,5526,-272.84,0
4784,5517,-267.09,0
4785,5481,-261.05,0
4786,5444,-255.25,0
4787,5419,-250.37,0
4788,5418,-246.84,0
4789,5452,-244.52,0
4790,5499,-242.80,0
4791,5544,-240.81,0
4792,5550,-237.73,0
4793,5529,-233.07,0
4794,5491,-226.94,0
4795,5460,-219.94,0
4796,5446,-212.84,0
4797,5462,-206.26,0
4798,5498,-200.57,0
4799,5524,-195.95,0
4800,5525,-192.57,0
4801,5492,-190.80,0
4802,5446,-191.26,0
4803,5409,-194.57,0
4804,5390,-200.86,0
4805,5407,-209.38,0
4806,5439,-218.62,0
4807,5485,-226.75,0
4808,5512,-232.22,0
4809,5511,-234.19,0
4810,5474,-232.67,0
4811,5440,-228.43,0
4812,5404,-222.65,0
4813,5407,-216.57,0
4814,5430,-211.11,0
4815,5480,-206.75,0
4816,5507,-203.51,0
4817,5509,-201.12,0
4818,5478,-199.32,0
4819,5435,-198.10,0
4820,5397,-197.61,0
4821,5385,-198.01,0
4822,5402,-199.24,0
4823,5439,-201.00,0
4824,5471,-202.85,0
4825,5480,-204.41,0
4826,5451,-205.61,0
4827,5398,-206.78,0
4828,5360,-208.56,0
4829,5348,-211.54,0
4830,5367,-215.77,0
4831,5407,-220.50,0
4832,5442,-224.48,0
4833,5451,-226.59,0
4834,5433,-226.49,0
4835,5393,-224.84,0
4836,5350,-222.91,0
4837,5318,-221.99,0
4838,5319,-222.84,0
4839,5354,-225.43,0
4840,5401,-229.06,0
4841,5430,-232.61,0
4842,5435,-234.96,0
4843,5403,-235.47,0
4844,5355,-234.12,0
4845,5323,-231.52,0
4846,5317,-228.49,0
4847,5351,-225.68,0
4848,5397,-223.18,0
4849,5435,-220.59,0
4850,5443,-217.38,0
4851,5414,-213.29,0
4852,5371,-208.69,0
4853,5335,-204.37,0
4854,5319,-201.13,0
4855,5333,-199.32,0
4856,5373,-198.70,0
4857,5416,-198.63,0
4858,5435,-198.38,0
4859,5418,-197.43,0
4860,5372,-195.75,0
4861,5323,-193.85,0
4862,5289,-192.55,0
4863,5290,-192.61,0
4864,5323,-194.33,0
4865,5369,-197.44,0
4866,5404,-201.19,0
4867,5399,-204.57,0
4868,5366,-206.81,0
4869,5323,-207.62,0
4870,5292,-207.23,0
4871,5293,-206.03,0
4872,5320,-204.26,0
4873,5362,-201.88,0
4874,5405,-198.71,0
4875,5421,-194.64,0
4876,5402,-189.72,0
4877,5367,-184.19,0
4878,5337,-178.35,0
4879,5321,-172.48,0
4880,5337,-166.65,0
4881,5377,-160.82,0
4882,5420,-154.98,0
4883,5439,-149.17,0
4884,5418,-143.63,0
4885,5378,-138.77,0
4886,5321,-135.21,0
4887,5309,-133.56,0
4888,5317,-133.99,0
4889,5357,-136.00,0
4890,5403,-138.48,0
4891,5440,-140.12,0
4892,5444,-139.94,0
4893,5415,-137.46,0
4894,5379,-132.83,0
4895,5352,-126.62,0
4896,5349,-119.53,0
4897,5381,-112.12,0
4898,5427,-104.75,0
4899,5469,-97.56,0
4900,5483,-90.59,0
4901,5463,-83.89,0
4902,5426,-77.57,0
4903,5391,-71.79,0
4904,5381,-66.66,0
4905,5401,-62.08,0
4906,5445,-57.78,0
4907,5487,-53.43,0
4908,5508,-48.77,0
4909,5497,-43.80,0
4910,5460,-38.80,0
4911,5424,-34.19,0
4912,5407,-30.28,0
4913,5420,-27.08,0
4914,5457,-24.21,0
4915,5498,-21.13,0
4916,5528,-17.43,0
4917,5529,-13.07,0
4918,5499,-8.35,0
4919,5464,-3.77,0
4920,5441,0.31,0
4921,5444,3.83,0
4922,5473,7.12,0
4923,5516,10.67,0
4924,5545,14.86,0
4925,5547,19.61,0
4926,5519,24.39,0
4927,5478,28.29,0
4928,5453,30.55,0
4929,5453,30.94,0
4930,5479,30.07,0
4931,5528,29.18,0
4932,5585,29.68,0
4933,5618,32.68,0
4934,5634,38.84,0
4935,5655,48.44,0
4936,5667,61.84,0
4937,5703,79.84,0
4938,5756,103.59,0
4939,5825,134.03,0
4940,5894,171.22,0
4941,5928,213.86,0
4942,5925,259.28,0
4943,5887,303.75,0
4944,5849,343.23,0
4945,5842,374.34,0
4946,5864,395.47,0
4947,5910,407.24,0
4948,5970,412.23,0
4949,6031,413.97,0
4950,6070,415.95,0
4951,6065,420.96,0
4952,6017,430.59,0
4953,5970,444.82,0
4954,5942,461.90,0
4955,5942,478.82,0
4956,5951,492.14,0
4957,5947,498.87,0
4958,5918,496.81,0
4959,5858,484.65,0
4960,5773,462.08,0
4961,5691,429.71,0
4962,5626,389.05,0
4963,5589,342.29,0
4964,5590,291.94,0
4965,5603,240.47,0
4966,5603,190.10,0
4967,5574,142.69,0
4968,5515,99.52,0
4969,5448,61.22,0
4970,5394,27.68,0
4971,5377,-1.69,0
4972,5392,-27.66,0
4973,5420,-50.88,0
4974,5440,-71.73,0
4975,5440,-90.40,0
4976,5411,-107.00,0
4977,5368,-121.52,0
4978,5330,-133.90,0
4979,5328,-143.96,0
4980,5358,-151.43,0
4981,5411,-155.91,0
4982,5463,-156.92,0
4983,5487,-154.18,0
4984,5470,-147.77,0
4985,5431,-138.37,0
4986,5393,-127.26,0
4987,5370,-115.97,0
4988,5380,-105.86,0
4989,5413,-97.85,0
4990,5449,-92.33,0
4991,5455,-89.30,0
4992,5421,-88.72,0
4993,5351,-90.85,0
4994,5260,-96.43,0
4995,5198,-106.60,0
4996,5197,-122.33,0
4997,5273,-143.57,0
4998,5405,-168.13,0
4999,5596,-191.02,0
5000,5857,-204.37,0
5001,6197,-197.57,0
5002,6636,-157.52,0
5003,7180,-69.08,0
5004,7818,83.74,0
5005,8505,315.60,0
5006,9223,636.96,0
5007,9920,1051.21,0
5008,10564,1552.90,0
5009,10978,2127.46,0
5010,11010,2750.93,0
5011,10998,3388.98,0
5012,10944,3998.07,0
5013,10507,4531.13,0
5014,9565,4943.13,0
5015,8205,5190.90,0
5016,6672,5229.74,0
5017,5248,5015.21,0
5018,4161,4514.45,0
5019,3479,3723.52,0
5020,3197,2681.69,0
5021,3244,1474.41,0
5022,3520,221.97,0
5023,3917,-942.39,0
5024,4333,-1898.12,0
5025,4684,-2559.28,0
5026,4943,-2887.95,0
5027,5114,-2897.11,0
5028,5227,-2643.35,0
5029,5301,-2212.26,0
5030,5344,-1700.16,0
5031,5383,-1196.46,0
5032,5393,-769.92,0
5033,5366,-460.92,0
5034,5313,-280.49,0
5035,5244,-215.39,0
5036,5188,-236.95,0
5037,5158,-310.83,0
5038,5173,-405.27,0
5039,5215,-496.30,0
5040,5257,-569.23,0
5041,5289,-617.65,0
5042,5290,-641.01,0
5043,5266,-642.20,0
5044,5232,-625.84,0
5045,5206,-597.57,0
5046,5216,-563.70,0
5047,5252,-530.68,0
5048,5298,-503.93,0
5049,5333,-486.68,0
5050,5341,-479.07,0
5051,5317,-478.36,0
5052,5286,-480.11,0
5053,5269,-479.90,0
5054,5279,-474.88,0
5055,5312,-464.50,0
5056,5364,-450.25,0
5057,5405,-434.62,0
5058,5421,-419.76,0
5059,5408,-406.56,0
5060,5381,-394.50,0
5061,5351,-382.27,0
5062,5346,-368.80,0
5063,5366,-354.02,0
5064,5406,-339.11,0
5065,5445,-325.86,0
5066,5468,-315.78,0
5067,5457,-309.23,0
5068,5427,-305.18,0
5069,5392,-301.76,0
5070,5376,-297.18,0
5071,5389,-290.58,0
5072,5429,-282.35,0
5073,5480,-273.75,0
5074,5520,-266.04,0
5075,5527,-259.63,0
5076,5500,-253.80,0
5077,5456,-247.13,0
5078,5421,-238.47,0
5079,5421,-227.79,0
5080,5452,-216.32,0
5081,5508,-205.95,0
5082,5556,-198.25,0
5083,5576,-193.53,0
5084,5568,-190.65,0
5085,5545,-187.43,0
5086,5528,-181.57,0
5087,5537,-171.49,0
5088,5572,-156.89,0
5089,5626,-138.74,0
5090,5682,-118.78,0
5091,5713,-98.79,0
5092,5712,-79.85,0
5093,5686,-62.16,0
5094,5658,-45.29,0
5095,5645,-28.73,0
5096,5665,-12.42,0
5097,5710,3.11,0
5098,5765,17.00,0
5099,5806,28.63,0
5100,5818,38.08,0
5101,5804,46.32,0
5102,5775,54.83,0
5103,5758,65.02,0
5104,5769,77.57,0
5105,5811,92.11,0
5106,5868,107.50,0
5107,5921,122.45,0
5108,5951,136.15,0
5109,5946,148.71,0
5110,5933,161.10,0
5111,5916,174.60,0
5112,5917,190.19,0
5113,5952,208.01,0
5114,6015,227.25,0
5115,6080,246.59,0
5116,6118,265.03,0
5117,6120,282.29,0
5118,6102,298.79,0
5119,6084,315.25,0
5120,6088,332.29,0
5121,6117,350.11,0
5122,6173,368.50,0
5123,6244,386.91,0
5124,6287,404.83,0
5125,6308,422.10,0
5126,6298,438.98,0
5127,6274,456.01,0
5128,6251,473.62,0
5129,6267,491.72,0
5130,6307,509.57,0
5131,6357,526.05,0
5132,6394,540.07,0
5133,6408,550.93,0
5134,6390,558.52,0
5135,6359,563.34,0
5136,6335,566.26,0
5137,6338,568.28,0
5138,6367,570.20,0
5139,6406,572.47,0
5140,6457,575.09,0
5141,6474,577.76,0
5142,6453,580.17,0
5143,6409,582.04,0
5144,6372,583.05,0
5145,6352,582.84,0
5146,6361,581.09,0
5147,6401,577.59,0
5148,6445,572.35,0
5149,6473,565.65,0
5150,6464,558.12,0
5151,6426,550.54,0
5152,6374,543.53,0
5153,6340,537.28,0
5154,6317,531.41,0
5155,6325,525.01,0
5156,6353,516.81,0
5157,6361,505.55,0
5158,6332,490.41,0
5159,6264,471.14,0
5160,6178,447.74,0
5161,6092,420.26,0
5162,6044,388.61,0
5163,6026,352.71,0
5164,6031,312.75,0
5165,6028,269.37,0
5166,6004,223.67,0
5167,5937,176.92,0
5168,5847,130.29,0
5169,5760,84.45,0
5170,5701,39.52,0
5171,5671,-4.74,0
5172,5671,-48.66,0
5173,5681,-92.38,0
5174,5674,-135.77,0
5175,5636,-178.32,0
5176,5569,-219.26,0
5177,5502,-257.83,0
5178,5455,-293.46,0
5179,5430,-325.82,0
5180,5432,-354.87,0
5181,5453,-380.95,0
5182,5469,-404.69,0
5183,5442,-426.80,0
5184,5404,-447.77,0
5185,5351,-467.86,0
5186,5324,-486.92,0
5187,5312,-504.31,0
5188,5332,-519.08,0
5189,5371,-530.34,0
5190,5401,-537.66,0
5191,5403,-541.27,0
5192,5367,-542.00,0
5193,5315,-541.14,0
5194,5277,-540.16,0
5195,5268,-540.17,0
5196,5284,-541.52,0
5197,5329,-543.71,0
5198,5382,-545.70,0
5199,5409,-546.32,0
5200,5401,-544.58,0
5201,5359,-540.01,0
5202,5311,-532.85,0
5203,5285,-524.04,0
5204,5287,-514.83,0
5205,5322,-506.40,0
5206,5368,-499.54,0
5207,5398,-494.46,0
5208,5406,-490.90,0
5209,5376,-488.26,0
5210,5330,-485.83,0
5211,5311,-482.99,0
5212,5304,-479.32,0
5213,5333,-474.53,0
5214,5381,-468.53,0
5215,5424,-461.43,0
5216,5434,-453.53,0
5217,5414,-445.18,0
5218,5374,-436.84,0
5219,5341,-428.95,0
5220,5332,-421.75,0
5221,5351,-415.21,0
5222,5400,-409.03,0
5223,5442,-402.79,0
5224,5467,-396.16,0
5225,5455,-389.02,0
5226,5417,-381.53,0
5227,5378,-374.03,0
5228,5361,-366.93,0
5229,5368,-360.45,0
5230,5401,-354.52,0
5231,5439,-348.99,0
5232,5465,-343.81,0
5233,5467,-339.10,0
5234,5441,-335.08,0
5235,5412,-331.80,0
5236,5391,-328.94,0
5237,5401,-325.77,0
5238,5439,-321.34,0
5239,5490,-314.81,0
5240,5528,-305.73,0
5241,5539,-294.28,0
5242,5520,-281.27,0
5243,5484,-267.89,0
5244,5441,-255.36,0
5245,5427,-244.60,0
5246,5450,-236.12,0
5247,5489,-229.99,0
5248,5528,-225.82,0
5249,5552,-223.04,0
5250,5536,-221.03,0
5251,5500,-219.33,0
5252,5454,-217.66,0
5253,5426,-215.94,0
5254,5423,-214.26,0
5255,5447,-212.90,0
5256,5487,-212.22,0
5257,5514,-212.59,0
5258,5511,-214.17,0
5259,5479,-216.77,0
5260,5437,-219.97,0
5261,5401,-223.22,0
5262,5392,-225.98,0
5263,5412,-227.92,0
5264,5449,-228.99,0
5265,5480,-229.43,0
5266,5482,-229.64,0
5267,5452,-230.07,0
5268,5407,-231.16,0
5269,5373,-233.16,0
5270,5359,-235.99,0
5271,5373,-239.19,0
5272,5406,-242.13,0
5273,5436,-244.29,0
5274,5446,-245.57,0
5275,5418,-246.31,0
5276,5369,-247.22,0
5277,5322,-249.14,0
5278,5301,-252.64,0
5279,5311,-257.76,0
5280,5348,-263.83,0
5281,5389,-269.74,0
5282,5413,-274.34,0
5283,5409,-276.91,0
5284,5371,-277.28,0
5285,5325,-275.90,0
5286,5292,-273.53,0
5287,5281,-271.00,0
5288,5307,-268.96,0
5289,5339,-267.81,0
5290,5364,-267.73,0
5291,5360,-268.80,0
5292,5326,-271.07,0
5293,5282,-274.63,0
5294,5245,-279.41,0
5295,5238,-284.99,0
5296,5259,-290.62,0
5297,5297,-295.27,0
5298,5329,-298.07,0
5299,5342,-298.65,0
5300,5326,-297.25,0
5301,5289,-294.59,0
5302,5257,-291.48,0
5303,5235,-288.44,0
5304,5245,-285.58,0
5305,5272,-282.73,0
5306,5314,-279.75,0
5307,5337,-276.61,0
5308,5331,-273.50,0
5309,5299,-270.66,0
5310,5262,-268.26,0
5311,5239,-266.33,0
5312,5244,-264.57,0
5313,5277,-262.46,0
5314,5324,-259.39,0
5315,5360,-254.91,0
5316,5361,-248.92,0
5317,5324,-241.77,0
5318,5284,-234.29,0
5319,5249,-227.56,0
5320,5236,-222.43,0
5321,5254,-219.23,0
5322,5295,-217.75,0
5323,5333,-217.46,0
5324,5344,-217.67,0
5325,5323,-217.83,0
5326,5284,-217.68,0
5327,5248,-217.24,0
5328,5230,-216.60,0
5329,5237,-215.73,0
5330,5272,-214.48,0
5331,5319,-212.73,0
5332,5347,-210.39,0
5333,5349,-207.41,0
5334,5316,-203.73,0
5335,5271,-199.36,0
5336,5241,-194.50,0
5337,5243,-189.48,0
5338,5278,-184.65,0
5339,5320,-180.17,0
5340,5344,-176.02,0
5341,5341,-172.21,0
5342,5312,-168.92,0
5343,5274,-166.54,0
5344,5249,-165.31,0
5345,5248,-165.04,0
5346,5277,-165.01,0
5347,5328,-164.17,0
5348,5377,-161.52,0
5349,5397,-156.39,0
5350,5385,-148.63,0
5351,5350,-138.66,0
5352,5317,-127.34,0
5353,5302,-115.72,0
5354,5317,-104.64,0
5355,5353,-94.66,0
5356,5396,-86.05,0
5357,5412,-78.87,0
5358,5394,-73.18,0
5359,5350,-69.19,0
5360,5311,-67.22,0
5361,5293,-67.44,0
5362,5305,-69.50,0
5363,5337,-72.37,0
5364,5379,-74.73,0
5365,5407,-75.45,0
5366,5409,-74.07,0
5367,5381,-70.85,0
5368,5343,-66.53,0
5369,5322,-61.97,0
5370,5327,-57.66,0
5371,5353,-53.55,0
5372,5397,-49.16,0
5373,5439,-43.99,0
5374,5460,-37.81,0
5375,5444,-30.68,0
5376,5406,-22.93,0
5377,5373,-15.06,0
5378,5361,-7.55,0
5379,5376,-0.75,0
5380,5414,5.28,0
5381,5452,10.57,0
5382,5475,15.20,0
5383,5460,19.13,0
5384,5424,22.22,0
5385,5382,24.25,0
5386,5356,25.11,0
5387,5361,24.86,0
5388,5399,23.86,0
5389,5450,22.72,0
5390,5484,22.16,0
5391,5486,22.85,0
5392,5452,25.11,0
5393,5411,28.72,0
5394,5383,33.05,0
5395,5390,37.37,0
5396,5414,41.33,0
5397,5457,44.98,0
5398,5497,48.61,0
5399,5510,52.42,0
5400,5493,56.45,0
5401,5467,60.59,0
5402,5446,64.75,0
5403,5442,69.15,0
5404,5458,74.28,0
5405,5511,80.65,0
5406,5584,88.58,0
5407,5651,98.34,0
5408,5693,110.57,0
5409,5706,126.35,0
5410,5701,147.01,0
5411,5698,173.41,0
5412,5712,205.39,0
5413,5752,241.45,0
5414,5797,278.91,0
5415,5824,314.56,0
5416,5824,345.32,0
5417,5798,368.89,0
5418,5759,384.08,0
5419,5729,391.06,0
5420,5730,391.20,0
5421,5762,386.74,0
5422,5812,380.28,0
5423,5851,374.29,0
5424,5863,370.54,0
5425,5836,369.79,0
5426,5773,371.59,0
5427,5711,374.44,0
5428,5684,376.16,0
5429,5692,374.61,0
5430,5718,368.55,0
5431,5743,357.90,0
5432,5740,343.51,0
5433,5694,326.50,0
5434,5620,307.65,0
5435,5548,287.01,0
5436,5501,264.21,0
5437,5481,238.89,0
5438,5488,211.25,0
5439,5496,181.98,0
5440,5497,151.97,0
5441,5476,121.93,0
5442,5429,92.35,0
5443,5373,63.64,0
5444,5328,36.27,0
5445,5317,10.84,0
5446,5333,-11.97,0
5447,5371,-31.51,0
5448,5411,-47.33,0
5449,5423,-59.24,0
5450,5404,-67.28,0
5451,5365,-71.76,0
5452,5333,-73.22,0
5453,5328,-72.31,0
5454,5356,-69.53,0
5455,5404,-65.15,0
5456,5449,-59.20,0
5457,5474,-51.73,0
5458,5457,-43.05,0
5459,5411,-33.84,0
5460,5359,-25.18,0
5461,5315,-18.32,0
5462,5287,-14.53,0
5463,5274,-14.94,0
5464,5268,-20.65,0
5465,5274,-32.72,0
5466,5297,-51.59,0
5467,5340,-76.17,0
5468,5436,-102.72,0
5469,5629,-124.22,0
5470,5964,-130.31,0
5471,6443,-107.54,0
5472,7036,-40.06,0
5473,7707,89.05,0
5474,8380,295.53,0
5475,9040,591.16,0
5476,9665,980.98,0
5477,10260,1461.37,0
5478,10811,2019.73,0
5479,10996,2634.80,0
5480,11000,3275.88,0
5481,10981,3902.05,0
5482,10745,4465.38,0
5483,9952,4917.91,0
5484,8674,5215.40,0
5485,7130,5315.53,0
5486,5639,5176.78,0
5487,4473,4765.10,0
5488,3735,4068.43,0
5489,3401,3111.96,0
5490,3374,1965.17,0
5491,3544,735.55,0
5492,3816,-449.61,0
5493,4142,-1467.49,0
5494,4472,-2222.40,0
5495,4772,-2661.52,0
5496,5031,-2780.80,0
5497,5239,-2621.24,0
5498,5373,-2257.23,0
5499,5414,-1780.09,0
5500,5386,-1280.71,0
5501,5327,-834.63,0
5502,5258,-492.09,0
5503,5211,-274.27,0
5504,5200,-175.98,0
5505,5221,-173.17,0
5506,5247,-232.71,0
5507,5260,-321.53,0
5508,5243,-413.09,0
5509,5209,-490.27,0
5510,5178,-544.96,0
5511,5165,-575.57,0
5512,5182,-584.25,0
5513,5223,-574.88,0
5514,5273,-552.22,0
5515,5302,-521.75,0
5516,5305,-489.40,0
5517,5281,-460.88,0
5518,5252,-440.34,0
5519,5237,-429.18,0
5520,5247,-425.58,0
5521,5291,-425.25,0
5522,5348,-423.19,0
5523,5393,-415.62,0
5524,5407,-401.40,0
5525,5385,-382.21,0
5526,5354,-361.57,0
5527,5334,-343.00,0
5528,5340,-328.36,0
5529,5373,-317.07,0
5530,5431,-306.72,0
5531,5488,-294.60,0
5532,5518,-279.14,0
5533,5502,-260.67,0
5534,5463,-241.23,0
5535,5425,-223.56,0
5536,5414,-209.72,0
5537,5443,-200.03,0
5538,5495,-192.91,0
5539,5551,-185.75,0
5540,5597,-176.34,0
5541,5603,-163.87,0
5542,5582,-149.17,0
5543,5545,-133.96,0
5544,5527,-119.88,0
5545,5539,-107.53,0
5546,5589,-96.20,0
5547,5641,-84.40,0
5548,5689,-70.79,0
5549,5696,-55.15,0
5550,5669,-38.70,0
5551,5630,-23.59,0
5552,5606,-11.89,0
5553,5603,-4.39,0
5554,5623,-0.17,0
5555,5665,2.82,0
5556,5710,6.56,0
5557,5732,11.94,0
5558,5722,18.52,0
5559,5695,24.97,0
5560,5657,29.99,0
5561,5658,33.13,0
5562,5674,35.22,0
5563,5732,38.07,0
5564,5790,43.60,0
5565,5829,52.98,0
5566,5845,66.04,0
5567,5818,81.41,0
5568,5787,97.19,0
5569,5768,111.77,0
5570,5776,124.47,0
5571,5812,135.66,0
5572,5867,146.27,0
5573,5913,157.09,0
5574,5933,168.26,0
5575,5928,179.26,0
5576,5906,189.34,0
5577,5894,198.17,0
5578,5906,206.34,0
5579,5941,215.29,0
5580,5997,226.71,0
5581,6046,241.59,0
5582,6075,259.66,0
5583,6067,279.31,0
5584,6039,298.22,0
5585,6021,314.25,0
5586,6039,326.45,0
5587,6056,335.57,0
5588,6117,343.72,0
5589,6184,353.21,0
5590,6232,365.60,0
5591,6246,381.23,0
5592,6229,399.25,0
5593,6208,418.16,0
5594,6207,436.54,0
5595,6226,453.74,0
5596,6275,470.06,0
5597,6329,486.29,0
5598,6372,502.98,0
5599,6389,519.89,0
5600,6370,535.99,0
5601,6337,549.86,0
5602,6313,560.39,0
5603,6320,567.31,0
5604,6354,571.47,0
5605,6413,574.45,0
5606,6447,577.90,0
5607,6467,582.77,0
5608,6449,588.78,0
5609,6427,594.69,0
5610,6396,599.13,0
5611,6386,601.41,0
5612,6410,601.87,0
5613,6453,601.62,0
5614,6495,601.92,0
5615,6521,603.49,0
5616,6516,606.12,0
5617,6489,608.82,0
5618,6455,610.36,0
5619,6430,610.00,0
5620,6431,607.78,0
5621,6456,604.39,0
5622,6487,600.61,0
5623,6498,596.80,0
5624,6479,592.43,0
5625,6419,586.16,0
5626,6346,576.15,0
5627,6281,560.76,0
5628,6242,539.15,0
5629,6221,511.56,0
5630,6215,479.08,0
5631,6202,442.97,0
5632,6161,404.04,0
5633,6093,362.42,0
5634,6006,317.76,0
5635,5920,269.75,0
5636,5861,218.65,0
5637,5828,165.46,0
5638,5819,111.74,0
5639,5816,59.10,0
5640,5783,8.61,0
5641,5731,-39.52,0
5642,5652,-85.90,0
5643,5573,-131.47,0
5644,5522,-176.89,0
5645,5500,-222.01,0
5646,5512,-265.79,0
5647,5529,-306.64,0
5648,5534,-343.10,0
5649,5506,-374.49,0
5650,5451,-401.19,0
5651,5390,-424.44,0
5652,5303,-445.82,0
5653,5321,-466.70,0
5654,5337,-487.70,0
5655,5375,-508.20,0
5656,5404,-526.71,0
5657,5412,-541.75,0
5658,5388,-552.58,0
5659,5349,-559.30,0
5660,5319,-562.60,0
5661,5307,-563.22,0
5662,5330,-561.56,0
5663,5365,-557.73,0
5664,5398,-551.79,0
5665,5408,-544.24,0
5666,5393,-536.14,0
5667,5353,-528.93,0
5668,5314,-523.87,0
5669,5303,-521.51,0
5670,5327,-521.34,0
5671,5367,-521.82,0
5672,5416,-520.95,0
5673,5435,-517.12,0
5674,5418,-509.89,0
5675,5382,-500.21,0
5676,5340,-490.06,0
5677,5315,-481.49,0
5678,5306,-475.72,0
5679,5322,-472.84,0
5680,5361,-472.15,0
5681,5397,-472.73,0
5682,5407,-473.76,0
5683,5389,-474.63,0
5684,5352,-474.95,0
5685,5328,-474.40,0
5686,5317,-472.64,0
5687,5360,-469.19,0
5688,5411,-463.46,0
5689,5463,-454.85,0
5690,5487,-443.09,0
5691,5469,-428.57,0
5692,5427,-412.46,0
5693,5388,-396.51,0
5694,5369,-382.45,0
5695,5386,-371.39,0
5696,5432,-363.43,0
5697,5477,-357.75,0
5698,5513,-353.06,0
5699,5507,-348.19,0
5700,5481,-342.50,0
5701,5446,-335.96,0
5702,5425,-328.85,0
5703,5429,-321.42,0
5704,5466,-313.66,0
5705,5517,-305.37,0
5706,5556,-296.32,0
5707,5558,-286.52,0
5708,5525,-276.39,0
5709,5475,-266.81,0
5710,5434,-258.95,0
5711,5417,-253.79,0
5712,5438,-251.68,0
5713,5484,-252.25,0
5714,5534,-254.48,0
5715,5554,-257.00,0
5716,5539,-258.52,0
5717,5501,-258.26,0
5718,5467,-256.06,0
5719,5457,-252.20,0
5720,5472,-247.00,0
5721,5509,-240.62,0
5722,5555,-233.15,0
5723,5579,-224.88,0
5724,5569,-216.38,0
5725,5527,-208.47,0
5726,5481,-202.15,0
5727,5448,-198.18,0
5728,5446,-196.88,0
5729,5473,-197.92,0
5730,5517,-200.46,0
5731,5550,-203.51,0
5732,5548,-206.21,0
5733,5504,-208.16,0
5734,5453,-209.57,0
5735,5404,-211.18,0
5736,5390,-213.77,0
5737,5407,-217.82,0
5738,5442,-223.19,0
5739,5471,-229.35,0
5740,5475,-235.67,0
5741,5453,-241.82,0
5742,5410,-247.77,0
5743,5365,-253.65,0
5744,5340,-259.42,0
5745,5347,-264.87,0
5746,5384,-269.62,0
5747,5420,-273.30,0
5748,5439,-275.71,0
5749,5418,-277.02,0
5750,5368,-277.81,0
5751,5318,-278.99,0
5752,5287,-281.45,0
5753,5280,-285.61,0
5754,5304,-291.24,0
5755,5340,-297.65,0
5756,5363,-304.05,0
5757,5358,-309.94,0
5758,5322,-315.17,0
5759,5281,-319.94,0
5760,5253,-324.49,0
5761,5250,-328.68,0
5762,5265,-331.96,0
5763,5299,-333.61,0
5764,5330,-333.30,0
5765,5339,-331.31,0
5766,5316,-328.47,0
5767,5271,-325.83,0
5768,5244,-324.20,0
5769,5235,-323.84,0
5770,5248,-324.23,0
5771,5285,-324.29,0
5772,5327,-322.99,0
5773,5356,-319.81,0
5774,5351,-314.76,0
5775,5321,-308.32,0
5776,5280,-301.13,0
5777,5261,-293.79,0
5778,5270,-286.68,0
5779,5301,-279.82,0
5780,5344,-273.03,0
5781,5372,-266.17,0
5782,5367,-259.34,0
5783,5337,-252.98,0
5784,5300,-247.70,0
5785,5271,-243.93,0
5786,5262,-241.66,0
5787,5282,-240.36,0
5788,5325,-239.33,0
5789,5363,-237.99,0
5790,5373,-235.97,0
5791,5354,-233.24,0
5792,5319,-230.06,0
5793,5291,-226.72,0
5794,5282,-223.36,0
5795,5302,-219.71,0
5796,5341,-215.29,0
5797,5382,-209.65,0
5798,5405,-202.72,0
5799,5388,-194.91,0
5800,5348,-186.99,0
5801,5307,-179.99,0
5802,5287,-174.74,0
5803,5290,-171.56,0
5804,5321,-170.13,0
5805,5365,-169.71,0
5806,5393,-169.48,0
5807,5420,-168.77,0
5808,5359,-167.12,0
5809,5316,-164.44,0
5810,5287,-161.20,0
5811,5289,-158.14,0
5812,5321,-155.66,0
5813,5368,-153.60,0
5814,5405,-151.34,0
5815,5411,-148.29,0
5816,5386,-144.25,0
5817,5346,-139.57,0
5818,5310,-134.95,0
5819,5293,-131.01,0
5820,5300,-128.07,0
5821,5332,-126.15,0
5822,5372,-125.16,0
5823,5390,-125.00,0
5824,5385,-125.54,0
5825,5356,-126.52,0
5826,5324,-127.53,0
5827,5299,-127.96,0
5828,5306,-127.18,0
5829,5342,-124.77,0
5830,5389,-120.65,0
5831,5420,-115.03,0
5832,5416,-108.39,0
5833,5378,-101.42,0
5834,5336,-95.01,0
5835,5312,-90.00,0
5836,5312,-86.80,0
5837,5337,-85.17,0
5838,5375,-84.37,0
5839,5411,-83.58,0
5840,5424,-82.30,0
5841,5410,-80.36,0
5842,5372,-77.80,0
5843,5336,-74.75,0
5844,5322,-71.32,0
5845,5338,-67.63,0
5846,5378,-63.76,0
5847,5419,-59.80,0
5848,5444,-55.82,0
5849,5434,-51.93,0
5850,5401,-48.20,0
5851,5365,-44.69,0
5852,5350,-41.41,0
5853,5360,-38.16,0
5854,5397,-34.59,0
5855,5441,-30.33,0
5856,5464,-25.23,0
5857,5463,-19.47,0
5858,5435,-13.61,0
5859,5397,-8.36,0
5860,5373,-4.20,0
5861,5376,-1.21,0
5862,5399,1.01,0
5863,5430,3.07,0
5864,5461,5.35,0
5865,5465,7.79,0
5866,5444,9.92,0
5867,5406,11.22,0
5868,5379,11.39,0
5869,5367,10.58,0
5870,5390,9.41,0
5871,5436,8.74,0
5872,5486,9.37,0
5873,5513,11.92,0
5874,5499,16.66,0
5875,5462,23.33,0
5876,5418,31.19,0
5877,5397,39.11,0
5878,5403,46.03,0
5879,5440,51.25,0
5880,5491,54.63,0
5881,5524,56.54,0
5882,5521,57.73,0
5883,5485,58.92,0
5884,5451,60.51,0
5885,5442,62.53,0
5886,5470,65.13,0
5887,5538,68.97,0
5888,5637,75.45,0
5889,5726,86.49,0
5890,5773,104.09,0
5891,5771,129.52,0
5892,5736,162.57,0
5893,5705,201.14,0
5894,5704,241.69,0
5895,5725,280.20,0
5896,5767,313.29,0
5897,5813,338.81,0
5898,5834,356.01,0
5899,5821,365.42,0
5900,5791,368.46,0
5901,5762,367.06,0
5902,5745,363.41,0
5903,5760,359.61,0
5904,5797,357.31,0
5905,5832,357.40,0
5906,5836,359.75,0
5907,5803,363.17,0
5908,5743,365.53,0
5909,5678,364.33,0
5910,5626,357.49,0
5911,5609,344.06,0
5912,5619,324.45,0
5913,5640,300.21,0
5914,5647,273.41,0
5915,5623,245.92,0
5916,5563,218.90,0
5917,5497,192.64,0
5918,5437,166.80,0
5919,5404,140.93,0
5920,5401,114.85,0
5921,5427,88.75,0
5922,5453,63.11,0
5923,5459,38.54,0
5924,5441,15.74,0
5925,5401,-4.65,0
5926,5364,-22.06,0
5927,5350,-35.92,0
5928,5353,-45.78,0
5929,5396,-51.47,0
5930,5438,-53.25,0
5931,5468,-51.81,0
5932,5469,-48.09,0
5933,5434,-43.10,0
5934,5405,-37.73,0
5935,5370,-32.56,0
5936,5375,-27.85,0
5937,5418,-23.58,0
5938,5460,-19.50,0
5939,5495,-15.26,0
5940,5487,-10.66,0
5941,5440,-5.99,0
5942,5361,-2.19,0
5943,5276,-0.84,0
5944,5213,-3.95,0
5945,5201,-13.58,0
5946,5267,-31.00,0
5947,5386,-55.56,0
5948,5529,-83.49,0
5949,5744,-107.40,0
5950,6036,-116.50,0
5951,6454,-96.98,0
5952,7016,-32.68,0
5953,7671,93.91,0
5954,8395,299.61,0
5955,9147,597.44,0
5956,9868,993.53,0
5957,10493,1484.96,0
5958,10960,2058.79,0
5959,11002,2691.56,0
5960,11004,3348.34,0
5961,10978,3983.82,0
5962,10739,4548.24,0
5963,9954,4994.96,0
5964,8706,5282.31,0
5965,7187,5369.72,0
5966,5697,5216.20,0
5967,4486,4787.83,0
5968,3707,4073.33,0
5969,3336,3099.65,0
5970,3310,1938.69,0
5971,3523,700.17,0
5972,3856,-487.54,0
5973,4228,-1502.06,0
5974,4556,-2249.56,0
5975,4819,-2679.89,0
5976,5016,-2791.66,0
5977,5160,-2627.75,0
5978,5267,-2263.20,0
5979,5340,-1788.95,0
5980,5380,-1294.84,0
5981,5370,-855.04,0
5982,5317,-518.54,0
5983,5238,-305.89,0
5984,5169,-211.98,0
5985,5131,-213.22,0
5986,5135,-276.78,0
5987,5173,-369.35,0
5988,5226,-463.63,0
5989,5263,-541.50,0
5990,5268,-594.06,0
5991,5237,-619.67,0
5992,5205,-621.36,0
5993,5180,-604.50,0
5994,5179,-575.41,0
5995,5215,-540.57,0
5996,5263,-506.19,0
5997,5303,-477.53,0
5998,5315,-458.01,0
5999,5298,-448.43,0
6000,5260,-446.80,0
6001,5231,-449.14,0
6002,5226,-450.86,0
6003,5253,-448.43,0
6004,5299,-440.54,0
6005,5345,-428.27,0
6006,5376,-414.24,0
6007,5369,-401.11,0
6008,5342,-390.27,0
6009,5312,-381.30,0
6010,5299,-372.46,0
6011,5312,-361.84,0
6012,5351,-348.56,0
6013,5402,-333.34,0
6014,5440,-318.19,0
6015,5446,-305.18,0
6016,5425,-295.36,0
6017,5390,-288.16,0
6018,5374,-281.70,0
6019,5381,-273.77,0
6020,5413,-262.90,0
6021,5461,-249.15,0
6022,5499,-234.09,0
6023,5509,-220.01,0
6024,5487,-208.78,0
6025,5458,-201.00,0
6026,5438,-195.74,0
6027,5438,-191.01,0
6028,5464,-184.72,0
6029,5513,-175.71,0
6030,5563,-164.32,0
6031,5588,-151.95,0
6032,5580,-140.19,0
6033,5552,-129.95,0
6034,5507,-121.08,0
6035,5499,-112.68,0
6036,5526,-103.76,0
6037,5572,-93.73,0
6038,5629,-82.74,0
6039,5678,-71.45,0
6040,5686,-60.60,0
6041,5662,-50.37,0
6042,5624,-40.27,0
6043,5603,-29.43,0
6044,5611,-17.15,0
6045,5651,-3.36,0
6046,5703,11.22,0
6047,5750,25.28,0
6048,5768,37.50,0
6049,5752,47.16,0
6050,5722,54.56,0
6051,5695,60.87,0
6052,5699,67.67,0
6053,5736,76.24,0
6054,5800,87.09,0
6055,5862,99.92,0
6056,5897,113.94,0
6057,5899,128.37,0
6058,5874,142.86,0
6059,5851,157.56,0
6060,5850,172.99,0
6061,5876,189.64,0
6062,5924,207.58,0
6063,5984,226.15,0
6064,6024,244.17,0
6065,6037,260.42,0
6066,6020,274.27,0
6067,5997,286.01,0
6068,5993,296.75,0
6069,6010,308.00,0
6070,6063,320.99,0
6071,6135,336.20,0
6072,6193,353.30,0
6073,6220,371.49,0
6074,6211,390.01,0
6075,6183,408.35,0
6076,6169,426.38,0
6077,6161,444.18,0
6078,6189,461.71,0
6079,6239,478.47,0
6080,6282,493.40,0
6081,6309,505.29,0
6082,6301,513.34,0
6083,6269,517.55,0
6084,6244,518.87,0
6085,6239,518.88,0
6086,6261,519.36,0
6087,6307,521.63,0
6088,6359,526.14,0
6089,6390,532.40,0
6090,6383,539.30,0
6091,6349,545.63,0
6092,6311,550.43,0
6093,6287,553.32,0
6094,6291,554.46,0
6095,6321,554.31,0
6096,6365,553.23,0
6097,6398,551.27,0
6098,6404,548.23,0
6099,6378,543.93,0
6100,6336,538.49,0
6101,6294,532.41,0
6102,6276,526.29,0
6103,6284,520.49,0
6104,6315,514.79,0
6105,6337,508.40,0
6106,6328,500.17,0
6107,6289,489.00,0
6108,6219,474.15,0
6109,6149,455.38,0
6110,6091,432.95,0
6111,6064,407.30,0
6112,6049,378.73,0
6113,6044,347.14,0
6114,6024,312.04,0
6115,5976,272.93,0
6116,5893,229.77,0
6117,5805,183.19,0
6118,5735,134.39,0
6119,5695,84.81,0
6120,5687,35.78,0
6121,5694,-11.73,0
6122,5694,-57.23,0
6123,5664,-100.59,0
6124,5603,-141.85,0
6125,5529,-181.04,0
6126,5471,-218.10,0
6127,5440,-252.83,0
6128,5439,-284.92,0
6129,5462,-314.15,0
6130,5481,-340.51,0
6131,5477,-364.30,0
6132,5437,-385.96,0
6133,5384,-405.92,0
6134,5339,-424.45,0
6135,5314,-441.46,0
6136,5319,-456.51,0
6137,5349,-469.08,0
6138,5386,-478.93,0
6139,5406,-486.24,0
6140,5396,-491.46,0
6141,5363,-495.13,0
6142,5321,-497.57,0
6143,5292,-498.79,0
6144,5284,-498.69,0
6145,5310,-497.26,0
6146,5354,-494.89,0
6147,5386,-492.19,0
6148,5396,-489.76,0
6149,5367,-487.86,0
6150,5328,-486.33,0
6151,5302,-484.70,0
6152,5306,-482.32,0
6153,5337,-478.47,0
6154,5381,-472.58,0
6155,5420,-464.53,0
6156,5431,-454.76,0
6157,5422,-444.20,0
6158,5393,-433.84,0
6159,5363,-424.26,0
6160,5356,-415.45,0
6161,5371,-406.92,0
6162,5410,-398.10,0
6163,5449,-388.76,0
6164,5475,-379.16,0
6165,5465,-369.90,0
6166,5425,-361.67,0
6167,5380,-354.98,0
6168,5355,-350.08,0
6169,5359,-346.87,0
6170,5401,-344.91,0
6171,5454,-343.50,0
6172,5489,-341.81,0
6173,5496,-339.09,0
6174,5463,-334.89,0
6175,5416,-329.24,0
6176,5385,-322.63,0
6177,5383,-315.75,0
6178,5409,-309.16,0
6179,5449,-303.19,0
6180,5485,-297.94,0
6181,5494,-293.50,0
6182,5470,-289.99,0
6183,5426,-287.53,0
6184,5394,-286.13,0
6185,5383,-285.54,0
6186,5399,-285.21,0
6187,5445,-284.39,0
6188,5492,-282.46,0
6189,5514,-279.06,0
6190,5484,-274.26,0
6191,5462,-268.64,0
6192,5416,-263.03,0
6193,5389,-258.15,0
6194,5387,-254.32,0
6195,5417,-251.59,0
6196,5459,-249.88,0
6197,5492,-249.09,0
6198,5490,-249.03,0
